PEER NGA STRONG MOTION DATABASE RECORD
San Fernando, 2/9/1971, Buena Vista - Taft, 90
VELOCITY TIME SERIES IN UNITS OF CM/S
NPTS=   5330, DT=   .0050 SEC,                                             
   .0000000E+00   .3429224E-02   .6842966E-02   .1025972E-01   .1370060E-01
   .1718743E-01   .2074100E-01   .2437962E-01   .2811766E-01   .3196474E-01
   .3592595E-01   .4000286E-01   .4419483E-01   .4850099E-01   .5292312E-01
   .5746737E-01   .6214240E-01   .6695516E-01   .7190651E-01   .7698697E-01
   .8217288E-01   .8742322E-01   .9267797E-01   .9785765E-01   .1028648E+00
   .1075882E+00   .1119103E+00   .1157123E+00   .1188760E+00   .1212854E+00
   .1228327E+00   .1234260E+00   .1229967E+00   .1215046E+00   .1189409E+00
   .1153263E+00   .1106994E+00   .1051011E+00   .9856410E-01   .9110819E-01
   .8273438E-01   .7341700E-01   .6310074E-01   .5170353E-01   .3912209E-01
   .2523986E-01   .9937378E-02  -.6894049E-02  -.2533239E-01  -.4539572E-01
  -.6700140E-01  -.8992311E-01  -.1137607E+00  -.1379324E+00  -.1616991E+00
  -.1842263E+00  -.2046801E+00  -.2223468E+00  -.2367386E+00  -.2476129E+00
  -.2549310E+00  -.2588049E+00  -.2594308E+00  -.2570365E+00  -.2518771E+00
  -.2442619E+00  -.2345665E+00  -.2232216E+00  -.2106883E+00  -.1974234E+00
  -.1838391E+00  -.1702835E+00  -.1570457E+00  -.1443550E+00  -.1323756E+00
  -.1212240E+00  -.1109923E+00  -.1017537E+00  -.9355770E-01  -.8641725E-01
  -.8029241E-01  -.7507483E-01  -.7057965E-01  -.6655085E-01  -.6268367E-01
  -.5866517E-01  -.5423098E-01  -.4922835E-01  -.4366261E-01  -.3771848E-01
  -.3176398E-01  -.2632469E-01  -.2202537E-01  -.1951642E-01  -.1940992E-01
  -.2227350E-01  -.2866063E-01  -.3911086E-01  -.5411967E-01  -.7410836E-01
  -.9940600E-01  -.1302201E+00  -.1665831E+00  -.2083030E+00  -.2549622E+00
  -.3059506E+00  -.3605017E+00  -.4177355E+00  -.4766923E+00  -.5363343E+00
  -.5955531E+00  -.6532152E+00  -.7081876E+00  -.7593165E+00  -.8054312E+00
  -.8454102E+00  -.8782502E+00  -.9031503E+00  -.9196278E+00  -.9275804E+00
  -.9272725E+00  -.9193022E+00  -.9045468E+00  -.8840724E+00  -.8590225E+00
  -.8305181E+00  -.7996056E+00  -.7672237E+00  -.7341857E+00  -.7012119E+00
  -.6689526E+00  -.6379656E+00  -.6086933E+00  -.5814504E+00  -.5563990E+00
  -.5335245E+00  -.5126668E+00  -.4936016E+00  -.4761218E+00  -.4601120E+00
  -.4456122E+00  -.4328455E+00  -.4221929E+00  -.4141383E+00  -.4092028E+00
  -.4078701E+00  -.4105246E+00  -.4174183E+00  -.4286387E+00  -.4440671E+00
  -.4633518E+00  -.4859114E+00  -.5109649E+00  -.5376028E+00  -.5649174E+00
  -.5921601E+00  -.6188342E+00  -.6446536E+00  -.6694497E+00  -.6931218E+00
  -.7156133E+00  -.7368944E+00  -.7569470E+00  -.7757561E+00  -.7933105E+00
  -.8096115E+00  -.8246812E+00  -.8385653E+00  -.8513257E+00  -.8630290E+00
  -.8737322E+00  -.8834676E+00  -.8922318E+00  -.8999922E+00  -.9067047E+00
  -.9123303E+00  -.9168526E+00  -.9202960E+00  -.9227432E+00  -.9243470E+00
  -.9253328E+00  -.9259867E+00  -.9266303E+00  -.9275822E+00  -.9291154E+00
  -.9314237E+00  -.9345880E+00  -.9385307E+00  -.9429787E+00  -.9474568E+00
  -.9513167E+00  -.9537914E+00  -.9540727E+00  -.9514003E+00  -.9451405E+00
  -.9348532E+00  -.9203251E+00  -.9015363E+00  -.8786115E+00  -.8517965E+00
  -.8214498E+00  -.7880384E+00  -.7521240E+00  -.7143393E+00  -.6753673E+00
  -.6359070E+00  -.5966060E+00  -.5579701E+00  -.5202990E+00  -.4837269E+00
  -.4483185E+00  -.4141261E+00  -.3812167E+00  -.3496740E+00  -.3195784E+00
  -.2909767E+00  -.2638561E+00  -.2381372E+00  -.2137053E+00  -.1904598E+00
  -.1683460E+00  -.1473499E+00  -.1274602E+00  -.1086331E+00  -.9077839E-01
  -.7377237E-01  -.5748681E-01  -.4182393E-01  -.2675571E-01  -.1236394E-01
   .1127723E-02   .1333712E-01   .2372877E-01   .3165354E-01   .3643712E-01
   .3750699E-01   .3453060E-01   .2752472E-01   .1684833E-01   .3040557E-02
  -.1336286E-01  -.3189132E-01  -.5213861E-01  -.7377727E-01  -.9654804E-01
  -.1202243E+00  -.1445874E+00  -.1694158E+00  -.1944835E+00  -.2195544E+00
  -.2443510E+00  -.2685181E+00  -.2916147E+00  -.3131292E+00  -.3324983E+00
  -.3491144E+00  -.3623471E+00  -.3716074E+00  -.3764392E+00  -.3766040E+00
  -.3721385E+00  -.3633979E+00  -.3510770E+00  -.3361622E+00  -.3198141E+00
  -.3032258E+00  -.2874985E+00  -.2735564E+00  -.2620547E+00  -.2532835E+00
  -.2471635E+00  -.2433232E+00  -.2411733E+00  -.2399763E+00  -.2389222E+00
  -.2372165E+00  -.2341876E+00  -.2293971E+00  -.2226948E+00  -.2141557E+00
  -.2039646E+00  -.1923264E+00  -.1793970E+00  -.1652398E+00  -.1498246E+00
  -.1330550E+00  -.1147985E+00  -.9492417E-01  -.7334300E-01  -.5003555E-01
  -.2505971E-01   .1448593E-02   .2926805E-01   .5807213E-01   .8739742E-01
   .1166226E+00   .1449720E+00   .1715353E+00   .1953059E+00   .2152596E+00
   .2304579E+00   .2401251E+00   .2437066E+00   .2409428E+00   .2319034E+00
   .2169107E+00   .1964268E+00   .1710110E+00   .1413315E+00   .1081650E+00
   .7237100E-01   .3484727E-01  -.3528271E-02  -.4194526E-01  -.7965421E-01
  -.1159480E+00  -.1501659E+00  -.1816816E+00  -.2099008E+00  -.2343066E+00
  -.2545228E+00  -.2703444E+00  -.2817264E+00  -.2887714E+00  -.2917172E+00
  -.2908910E+00  -.2866390E+00  -.2792719E+00  -.2690516E+00  -.2562144E+00
  -.2409950E+00  -.2236436E+00  -.2044598E+00  -.1838317E+00  -.1622480E+00
  -.1402755E+00  -.1185009E+00  -.9744353E-01  -.7745867E-01  -.5868122E-01
  -.4103629E-01  -.2427149E-01  -.7976509E-02   .8400189E-02   .2553254E-01
   .4417814E-01   .6510350E-01   .8898775E-01   .1163371E+00   .1474165E+00
   .1822165E+00   .2204677E+00   .2616654E+00   .3050901E+00   .3498399E+00
   .3948849E+00   .4391450E+00   .4815637E+00   .5211844E+00   .5572218E+00
   .5890547E+00   .6161853E+00   .6382590E+00   .6551142E+00   .6668126E+00
   .6736507E+00   .6761679E+00   .6751345E+00   .6714831E+00   .6661747E+00
   .6600578E+00   .6538165E+00   .6479781E+00   .6428898E+00   .6386809E+00
   .6352736E+00   .6324378E+00   .6298386E+00   .6270780E+00   .6237331E+00
   .6193832E+00   .6136273E+00   .6061128E+00   .5965751E+00   .5848605E+00
   .5709017E+00   .5546796E+00   .5362086E+00   .5155428E+00   .4927992E+00
   .4681920E+00   .4420612E+00   .4148879E+00   .3872896E+00   .3599891E+00
   .3337528E+00   .3093015E+00   .2872266E+00   .2679765E+00   .2518922E+00
   .2392176E+00   .2300833E+00   .2244992E+00   .2223796E+00   .2235814E+00
   .2279296E+00   .2352338E+00   .2452960E+00   .2578966E+00   .2727523E+00
   .2894760E+00   .3075545E+00   .3263435E+00   .3450795E+00   .3629206E+00
   .3790125E+00   .3925365E+00   .4027209E+00   .4088704E+00   .4104485E+00
   .4071830E+00   .3991354E+00   .3866781E+00   .3704231E+00   .3511618E+00
   .3298203E+00   .3074195E+00   .2850086E+00   .2635509E+00   .2437941E+00
   .2261690E+00   .2107791E+00   .1974755E+00   .1859419E+00   .1757659E+00
   .1665167E+00   .1578285E+00   .1494711E+00   .1413737E+00   .1335826E+00
   .1261982E+00   .1193235E+00   .1130228E+00   .1072962E+00   .1020837E+00
   .9728687E-01   .9279586E-01   .8851999E-01   .8441589E-01   .8049678E-01
   .7682518E-01   .7350276E-01   .7065787E-01   .6842885E-01   .6694820E-01
   .6633913E-01   .6672062E-01   .6820673E-01   .7089999E-01   .7488445E-01
   .8022722E-01   .8699205E-01   .9525282E-01   .1050971E+00   .1166207E+00
   .1299140E+00   .1450414E+00   .1620187E+00   .1807940E+00   .2012318E+00
   .2230958E+00   .2460393E+00   .2696015E+00   .2932081E+00   .3161764E+00
   .3377449E+00   .3571389E+00   .3736588E+00   .3867474E+00   .3959918E+00
   .4011047E+00   .4019344E+00   .3984676E+00   .3908116E+00   .3791781E+00
   .3638779E+00   .3453209E+00   .3240124E+00   .3005322E+00   .2754997E+00
   .2495421E+00   .2232659E+00   .1972069E+00   .1717704E+00   .1472149E+00
   .1236828E+00   .1012267E+00   .7981519E-01   .5933240E-01   .3958770E-01
   .2034646E-01   .1375754E-02  -.1750589E-01  -.3638055E-01  -.5520270E-01
  -.7380215E-01  -.9190113E-01  -.1091329E+00  -.1250675E+00  -.1392395E+00
  -.1511718E+00  -.1604068E+00  -.1665579E+00  -.1693618E+00  -.1686896E+00
  -.1644972E+00  -.1567646E+00  -.1454659E+00  -.1305721E+00  -.1120777E+00
  -.9003098E-01  -.6456178E-01  -.3589501E-01  -.4337561E-02   .2975301E-01
   .6600371E-01   .1040510E+00   .1435227E+00   .1840042E+00   .2250340E+00
   .2661192E+00   .3067462E+00   .3463898E+00   .3845368E+00   .4207165E+00
   .4545112E+00   .4855685E+00   .5136376E+00   .5386079E+00   .5605050E+00
   .5794263E+00   .5954609E+00   .6086300E+00   .6188619E+00   .6260148E+00
   .6299270E+00   .6304664E+00   .6275717E+00   .6212661E+00   .6116552E+00
   .5989272E+00   .5833555E+00   .5653022E+00   .5452157E+00   .5236069E+00
   .5010163E+00   .4779910E+00   .4550575E+00   .4326668E+00   .4111335E+00
   .3906130E+00   .3711385E+00   .3526739E+00   .3351474E+00   .3184770E+00
   .3025929E+00   .2874542E+00   .2730550E+00   .2594186E+00   .2465834E+00
   .2345875E+00   .2234497E+00   .2131492E+00   .2036018E+00   .1946403E+00
   .1860049E+00   .1773481E+00   .1682559E+00   .1582823E+00   .1469924E+00
   .1340181E+00   .1191203E+00   .1022247E+00   .8342399E-01   .6297505E-01
   .4129716E-01   .1896058E-01  -.3339701E-02  -.2483425E-01  -.4476026E-01
  -.6246525E-01  -.7749979E-01  -.8962748E-01  -.9874939E-01  -.1048249E+00
  -.1078221E+00  -.1076867E+00  -.1043297E+00  -.9763035E-01  -.8745092E-01
  -.7366131E-01  -.5616589E-01  -.3491347E-01  -.9881644E-02   .1894016E-01
   .5154355E-01   .8785405E-01   .1276525E+00   .1705037E+00   .2157184E+00
   .2623710E+00   .3093935E+00   .3557248E+00   .4004689E+00   .4429911E+00
   .4828754E+00   .5198285E+00   .5536370E+00   .5841549E+00   .6112943E+00
   .6350007E+00   .6552239E+00   .6719043E+00   .6849680E+00   .6943189E+00
   .6998304E+00   .7013501E+00   .6987175E+00   .6918008E+00   .6805522E+00
   .6650705E+00   .6456520E+00   .6228124E+00   .5972471E+00   .5697172E+00
   .5409121E+00   .5113720E+00   .4815248E+00   .4517637E+00   .4224805E+00
   .3940756E+00   .3669546E+00   .3415033E+00   .3180429E+00   .2967920E+00
   .2778600E+00   .2612547E+00   .2468815E+00   .2345618E+00   .2240705E+00
   .2151792E+00   .2077018E+00   .2015331E+00   .1966587E+00   .1931228E+00
   .1909821E+00   .1902708E+00   .1909786E+00   .1930467E+00   .1963772E+00
   .2008436E+00   .2063063E+00   .2126281E+00   .2196792E+00   .2273357E+00
   .2354858E+00   .2440422E+00   .2529564E+00   .2622253E+00   .2718894E+00
   .2820284E+00   .2927565E+00   .3042136E+00   .3165525E+00   .3299232E+00
   .3444628E+00   .3602848E+00   .3774586E+00   .3959828E+00   .4157628E+00
   .4365985E+00   .4581803E+00   .4800960E+00   .5018509E+00   .5229036E+00
   .5427115E+00   .5607845E+00   .5767239E+00   .5902135E+00   .6009982E+00
   .6088943E+00   .6138165E+00   .6158033E+00   .6150135E+00   .6116970E+00
   .6061622E+00   .5987410E+00   .5897548E+00   .5794975E+00   .5682367E+00
   .5562049E+00   .5435738E+00   .5304226E+00   .5167203E+00   .5023570E+00
   .4872041E+00   .4711630E+00   .4541966E+00   .4363383E+00   .4176870E+00
   .3984063E+00   .3787208E+00   .3589086E+00   .3392956E+00   .3202642E+00
   .3022631E+00   .2857978E+00   .2714115E+00   .2596725E+00   .2511456E+00
   .2463306E+00   .2455824E+00   .2490527E+00   .2566945E+00   .2682964E+00
   .2835098E+00   .3018941E+00   .3229803E+00   .3463278E+00   .3715339E+00
   .3981868E+00   .4258137E+00   .4538701E+00   .4817664E+00   .5089232E+00
   .5348286E+00   .5590501E+00   .5812171E+00   .6010322E+00   .6183114E+00
   .6330284E+00   .6453317E+00   .6555171E+00   .6639743E+00   .6711213E+00
   .6773118E+00   .6827436E+00   .6874447E+00   .6913408E+00   .6943335E+00
   .6963564E+00   .6974031E+00   .6975107E+00   .6967216E+00   .6950531E+00
   .6924800E+00   .6889494E+00   .6844152E+00   .6788661E+00   .6723463E+00
   .6649607E+00   .6568510E+00   .6481571E+00   .6389790E+00   .6293449E+00
   .6191977E+00   .6084089E+00   .5968069E+00   .5842104E+00   .5704676E+00
   .5555020E+00   .5393543E+00   .5222157E+00   .5044423E+00   .4865234E+00
   .4689935E+00   .4523345E+00   .4369303E+00   .4230717E+00   .4109614E+00
   .4007104E+00   .3923597E+00   .3859152E+00   .3813708E+00   .3787229E+00
   .3779799E+00   .3791683E+00   .3823349E+00   .3875418E+00   .3948536E+00
   .4043179E+00   .4159393E+00   .4296467E+00   .4452590E+00   .4624584E+00
   .4807818E+00   .4996339E+00   .5183295E+00   .5361666E+00   .5525235E+00
   .5669586E+00   .5792512E+00   .5893576E+00   .5973417E+00   .6033314E+00
   .6074868E+00   .6099748E+00   .6109536E+00   .6105617E+00   .6089196E+00
   .6061610E+00   .6024817E+00   .5981768E+00   .5936551E+00   .5894278E+00
   .5860671E+00   .5841339E+00   .5840861E+00   .5861979E+00   .5905524E+00
   .5970771E+00   .6055609E+00   .6156688E+00   .6269716E+00   .6389938E+00
   .6512815E+00   .6634822E+00   .6754184E+00   .6871102E+00   .6987259E+00
   .7105063E+00   .7227034E+00   .7355361E+00   .7491841E+00   .7638036E+00
   .7795318E+00   .7964903E+00   .8147883E+00   .8345153E+00   .8557246E+00
   .8784071E+00   .9024646E+00   .9276892E+00   .9537586E+00   .9802444E+00
   .1006634E+01   .1032358E+01   .1056822E+01   .1079438E+01   .1099689E+01
   .1117185E+01   .1131662E+01   .1142915E+01   .1150742E+01   .1154917E+01
   .1155216E+01   .1151458E+01   .1143573E+01   .1131652E+01   .1115942E+01
   .1096792E+01   .1074575E+01   .1049654E+01   .1022394E+01   .9932028E+00
   .9625480E+00   .9309487E+00   .8989650E+00   .8671653E+00   .8360731E+00
   .8061269E+00   .7776879E+00   .7510571E+00   .7264604E+00   .7040155E+00
   .6837075E+00   .6654100E+00   .6489333E+00   .6340662E+00   .6206144E+00
   .6084309E+00   .5974176E+00   .5875112E+00   .5786789E+00   .5709164E+00
   .5642414E+00   .5586790E+00   .5542458E+00   .5509382E+00   .5487234E+00
   .5475363E+00   .5472803E+00   .5478374E+00   .5490852E+00   .5509188E+00
   .5532773E+00   .5561693E+00   .5596886E+00   .5640048E+00   .5693342E+00
   .5759041E+00   .5839128E+00   .5934893E+00   .6046754E+00   .6174314E+00
   .6316450E+00   .6471381E+00   .6636744E+00   .6809678E+00   .6986858E+00
   .7164605E+00   .7339176E+00   .7507182E+00   .7666054E+00   .7814262E+00
   .7950994E+00   .8075632E+00   .8187422E+00   .8285285E+00   .8367759E+00
   .8433078E+00   .8479370E+00   .8504927E+00   .8508480E+00   .8489296E+00
   .8447016E+00   .8381416E+00   .8292251E+00   .8179161E+00   .8041649E+00
   .7879112E+00   .7690886E+00   .7476285E+00   .7234657E+00   .6965515E+00
   .6668729E+00   .6344766E+00   .5994942E+00   .5621637E+00   .5228459E+00
   .4820300E+00   .4403245E+00   .3984228E+00   .3570485E+00   .3169012E+00
   .2786140E+00   .2427053E+00   .2095379E+00   .1793537E+00   .1523482E+00
   .1287075E+00   .1086188E+00   .9227132E-01   .7985708E-01   .7156598E-01
   .6755772E-01   .6791778E-01   .7260818E-01   .8142926E-01   .9399733E-01
   .1097358E+00   .1278836E+00   .1475210E+00   .1676141E+00   .1871001E+00
   .2050180E+00   .2206555E+00   .2336321E+00   .2438342E+00   .2512877E+00
   .2560789E+00   .2583101E+00   .2580912E+00   .2555526E+00   .2508567E+00
   .2442090E+00   .2358673E+00   .2261505E+00   .2154381E+00   .2041548E+00
   .1927463E+00   .1816589E+00   .1713127E+00   .1620722E+00   .1542558E+00
   .1481618E+00   .1440639E+00   .1421912E+00   .1427170E+00   .1457597E+00
   .1513729E+00   .1595214E+00   .1700491E+00   .1826476E+00   .1968311E+00
   .2119291E+00   .2271133E+00   .2414674E+00   .2541060E+00   .2643051E+00
   .2715567E+00   .2755464E+00   .2761314E+00   .2733376E+00   .2673396E+00
   .2584303E+00   .2469972E+00   .2335031E+00   .2184684E+00   .2024482E+00
   .1860035E+00   .1696960E+00   .1540928E+00   .1397476E+00   .1271728E+00
   .1168314E+00   .1091245E+00   .1043464E+00   .1026375E+00   .1039892E+00
   .1083010E+00   .1154209E+00   .1251214E+00   .1370489E+00   .1506982E+00
   .1654206E+00   .1804752E+00   .1951253E+00   .2087550E+00   .2209596E+00
   .2315217E+00   .2403280E+00   .2473249E+00   .2524982E+00   .2558587E+00
   .2574320E+00   .2572539E+00   .2553702E+00   .2518397E+00   .2467391E+00
   .2401689E+00   .2322572E+00   .2231568E+00   .2130321E+00   .2020414E+00
   .1903179E+00   .1779700E+00   .1650873E+00   .1517393E+00   .1379680E+00
   .1237883E+00   .1092005E+00   .9420878E-01   .7883680E-01   .6313951E-01
   .4721124E-01   .3118694E-01   .1523521E-01  -.4562045E-03  -.1570184E-01
  -.3034340E-01  -.4426538E-01  -.5738802E-01  -.6965255E-01  -.8101684E-01
  -.9145796E-01  -.1009773E+00  -.1096055E+00  -.1174046E+00  -.1244687E+00
  -.1309219E+00  -.1369132E+00  -.1426089E+00  -.1481879E+00  -.1538341E+00
  -.1597160E+00  -.1659579E+00  -.1726126E+00  -.1796549E+00  -.1869870E+00
  -.1944408E+00  -.2017816E+00  -.2087169E+00  -.2149035E+00  -.2199642E+00
  -.2235247E+00  -.2252679E+00  -.2249957E+00  -.2226727E+00  -.2184028E+00
  -.2123657E+00  -.2047674E+00  -.1958049E+00  -.1856589E+00  -.1745038E+00
  -.1625104E+00  -.1498371E+00  -.1366151E+00  -.1229301E+00  -.1088109E+00
  -.9424070E-01  -.7918402E-01  -.6360957E-01  -.4751311E-01  -.3094289E-01
  -.1402872E-01   .2985013E-02   .1971364E-01   .3562687E-01   .5006971E-01
   .6231354E-01   .7163639E-01   .7741705E-01   .7919927E-01   .7670189E-01
   .6981985E-01   .5863893E-01   .4342581E-01   .2458971E-01   .2639192E-02
  -.2185925E-01  -.4830959E-01  -.7611188E-01  -.1047065E+00  -.1336183E+00
  -.1624506E+00  -.1908470E+00  -.2184757E+00  -.2450356E+00  -.2702513E+00
  -.2938662E+00  -.3156540E+00  -.3354479E+00  -.3531703E+00  -.3688340E+00
  -.3825036E+00  -.3942405E+00  -.4040599E+00  -.4118965E+00  -.4175935E+00
  -.4209215E+00  -.4216161E+00  -.4194222E+00  -.4141403E+00  -.4056595E+00
  -.3939725E+00  -.3791883E+00  -.3615411E+00  -.3413786E+00  -.3191296E+00
  -.2952577E+00  -.2702054E+00  -.2443486E+00  -.2179991E+00  -.1914414E+00
  -.1649537E+00  -.1388081E+00  -.1132664E+00  -.8859013E-01  -.6507421E-01
  -.4307376E-01  -.2300131E-01  -.5302996E-02   .9572943E-02   .2122266E-01
   .2935683E-01   .3387950E-01   .3493526E-01   .3286043E-01   .2807619E-01
   .2101052E-01   .1207719E-01   .1699343E-02  -.9675624E-02  -.2159148E-01
  -.3361508E-01  -.4536721E-01  -.5655368E-01  -.6700100E-01  -.7666749E-01
  -.8561069E-01  -.9394179E-01  -.1017906E+00  -.1092743E+00  -.1164682E+00
  -.1233871E+00  -.1299860E+00  -.1361719E+00  -.1418164E+00  -.1467716E+00
  -.1508899E+00  -.1540478E+00  -.1561675E+00  -.1572237E+00  -.1572366E+00
  -.1562608E+00  -.1543744E+00  -.1516672E+00  -.1482253E+00  -.1441138E+00
  -.1393612E+00  -.1339518E+00  -.1278270E+00  -.1208912E+00  -.1130202E+00
  -.1040744E+00  -.9391685E-01  -.8243022E-01  -.6952588E-01  -.5514811E-01
  -.3928471E-01  -.2197969E-01  -.3343153E-02   .1644844E-01   .3716820E-01
   .5856759E-01   .8041139E-01   .1025162E+00   .1247793E+00   .1471712E+00
   .1696996E+00   .1923742E+00   .2151762E+00   .2380301E+00   .2607794E+00
   .2831700E+00   .3048458E+00   .3253592E+00   .3441926E+00   .3607797E+00
   .3745283E+00   .3848663E+00   .3913144E+00   .3935556E+00   .3914473E+00
   .3849904E+00   .3743092E+00   .3596442E+00   .3413382E+00   .3198151E+00
   .2955519E+00   .2690516E+00   .2408390E+00   .2114664E+00   .1815036E+00
   .1515274E+00   .1221395E+00   .9397863E-01   .6769426E-01   .4390421E-01
   .2313942E-01   .5765859E-02  -.8078092E-02  -.1845492E-01  -.2554808E-01
  -.2960512E-01  -.3089654E-01  -.2969427E-01  -.2627526E-01  -.2092684E-01
  -.1393779E-01  -.5586599E-02   .3854113E-02   .1411076E-01   .2492143E-01
   .3605937E-01   .4734595E-01   .5863284E-01   .6977591E-01   .8062854E-01
   .9104846E-01   .1009119E+00   .1101274E+00   .1186340E+00   .1263886E+00
   .1333581E+00   .1395180E+00   .1448547E+00   .1493704E+00   .1530902E+00
   .1560675E+00   .1583857E+00   .1601550E+00   .1615020E+00   .1625492E+00
   .1633863E+00   .1640370E+00   .1644303E+00   .1643863E+00   .1636394E+00
   .1618885E+00   .1588552E+00   .1543472E+00   .1483160E+00   .1408773E+00
   .1322764E+00   .1228286E+00   .1128584E+00   .1026386E+00   .9234844E-01
   .8207648E-01   .7184252E-01   .6160735E-01   .5127767E-01   .4071065E-01
   .2971576E-01   .1805872E-01   .5476271E-02  -.8295680E-02  -.2348220E-01
  -.4022391E-01  -.5854047E-01  -.7830784E-01  -.9924143E-01  -.1208883E+00
  -.1426420E+00  -.1637945E+00  -.1836317E+00  -.2015534E+00  -.2171742E+00
  -.2303359E+00  -.2410514E+00  -.2494578E+00  -.2557837E+00  -.2603109E+00
  -.2633273E+00  -.2650765E+00  -.2657099E+00  -.2652608E+00  -.2636773E+00
  -.2608977E+00  -.2569226E+00  -.2518669E+00  -.2459806E+00  -.2396198E+00
  -.2331813E+00  -.2270268E+00  -.2214025E+00  -.2163865E+00  -.2118990E+00
  -.2077465E+00  -.2036616E+00  -.1993472E+00  -.1945306E+00  -.1890147E+00
  -.1827011E+00  -.1755826E+00  -.1677314E+00  -.1592934E+00  -.1504813E+00
  -.1415646E+00  -.1328615E+00  -.1247255E+00  -.1175155E+00  -.1115535E+00
  -.1070857E+00  -.1042753E+00  -.1032186E+00  -.1039491E+00  -.1064299E+00
  -.1105423E+00  -.1160815E+00  -.1227695E+00  -.1302847E+00  -.1382973E+00
  -.1465062E+00  -.1546612E+00  -.1625686E+00  -.1700903E+00  -.1771261E+00
  -.1835826E+00  -.1893525E+00  -.1943070E+00  -.1982992E+00  -.2011769E+00
  -.2028020E+00  -.2030659E+00  -.2018895E+00  -.1992197E+00  -.1950346E+00
  -.1893545E+00  -.1822529E+00  -.1738663E+00  -.1643977E+00  -.1541120E+00
  -.1433191E+00  -.1323476E+00  -.1215141E+00  -.1111054E+00  -.1013822E+00
  -.9258371E-01  -.8492175E-01  -.7858598E-01  -.7376147E-01  -.7063739E-01
  -.6939929E-01  -.7021134E-01  -.7320095E-01  -.7845800E-01  -.8603736E-01
  -.9595107E-01  -.1081559E+00  -.1225432E+00  -.1389387E+00  -.1571169E+00
  -.1768257E+00  -.1978170E+00  -.2198770E+00  -.2428377E+00  -.2665611E+00
  -.2909173E+00  -.3157740E+00  -.3409866E+00  -.3663776E+00  -.3917146E+00
  -.4167044E+00  -.4410025E+00  -.4642338E+00  -.4860117E+00  -.5059400E+00
  -.5236198E+00  -.5386838E+00  -.5508479E+00  -.5599576E+00  -.5659894E+00
  -.5690168E+00  -.5691839E+00  -.5666912E+00  -.5617918E+00  -.5547975E+00
  -.5460803E+00  -.5360599E+00  -.5251844E+00  -.5139244E+00  -.5027680E+00
  -.4921901E+00  -.4826002E+00  -.4742957E+00  -.4674709E+00  -.4622520E+00
  -.4587060E+00  -.4568341E+00  -.4565663E+00  -.4577698E+00  -.4602690E+00
  -.4638655E+00  -.4683616E+00  -.4735830E+00  -.4793875E+00  -.4856538E+00
  -.4922687E+00  -.4991269E+00  -.5061392E+00  -.5132415E+00  -.5203948E+00
  -.5275755E+00  -.5347675E+00  -.5419592E+00  -.5491435E+00  -.5563193E+00
  -.5634924E+00  -.5706770E+00  -.5778953E+00  -.5851750E+00  -.5925450E+00
  -.6000287E+00  -.6076355E+00  -.6153513E+00  -.6231294E+00  -.6308849E+00
  -.6384926E+00  -.6457925E+00  -.6526041E+00  -.6587496E+00  -.6640863E+00
  -.6685450E+00  -.6721673E+00  -.6751250E+00  -.6776952E+00  -.6801957E+00
  -.6829157E+00  -.6860579E+00  -.6897227E+00  -.6939334E+00  -.6986677E+00
  -.7038796E+00  -.7095180E+00  -.7155436E+00  -.7219373E+00  -.7287009E+00
  -.7358544E+00  -.7434313E+00  -.7514710E+00  -.7600096E+00  -.7690704E+00
  -.7786581E+00  -.7887571E+00  -.7993297E+00  -.8103161E+00  -.8216358E+00
  -.8331912E+00  -.8448710E+00  -.8565441E+00  -.8680514E+00  -.8792064E+00
  -.8898092E+00  -.8996716E+00  -.9086511E+00  -.9166908E+00  -.9238518E+00
  -.9303162E+00  -.9363640E+00  -.9423369E+00  -.9485916E+00  -.9554410E+00
  -.9630941E+00  -.9716246E+00  -.9809706E+00  -.9909409E+00  -.1001222E+01
  -.1011395E+01  -.1020964E+01  -.1029405E+01  -.1036225E+01  -.1041044E+01
  -.1043687E+01  -.1044252E+01  -.1043074E+01  -.1040622E+01  -.1037391E+01
  -.1033806E+01  -.1030179E+01  -.1026739E+01  -.1023665E+01  -.1021106E+01
  -.1019189E+01  -.1018010E+01  -.1017642E+01  -.1018142E+01  -.1019568E+01
  -.1021990E+01  -.1025478E+01  -.1030103E+01  -.1035935E+01  -.1043044E+01
  -.1051497E+01  -.1061340E+01  -.1072584E+01  -.1085184E+01  -.1099013E+01
  -.1113848E+01  -.1129355E+01  -.1145095E+01  -.1160547E+01  -.1175133E+01
  -.1188269E+01  -.1199423E+01  -.1208188E+01  -.1214318E+01  -.1217717E+01
  -.1218404E+01  -.1216509E+01  -.1212265E+01  -.1206002E+01  -.1198122E+01
  -.1189063E+01  -.1179254E+01  -.1169051E+01  -.1158696E+01  -.1148335E+01
  -.1138060E+01  -.1127937E+01  -.1118012E+01  -.1108311E+01  -.1098835E+01
  -.1089558E+01  -.1080437E+01  -.1071416E+01  -.1062442E+01  -.1053470E+01
  -.1044472E+01  -.1035428E+01  -.1026329E+01  -.1017166E+01  -.1007936E+01
  -.9986413E+00  -.9892912E+00  -.9799003E+00  -.9704889E+00  -.9610840E+00
  -.9517210E+00  -.9424489E+00  -.9333346E+00  -.9244658E+00  -.9159500E+00
  -.9079151E+00  -.9005135E+00  -.8939269E+00  -.8883586E+00  -.8840183E+00
  -.8811058E+00  -.8798051E+00  -.8802750E+00  -.8826264E+00  -.8868922E+00
  -.8930041E+00  -.9007826E+00  -.9099380E+00  -.9200792E+00  -.9307348E+00
  -.9413848E+00  -.9515078E+00  -.9606467E+00  -.9684754E+00  -.9748230E+00
  -.9796502E+00  -.9830229E+00  -.9850967E+00  -.9860976E+00  -.9862895E+00
  -.9859278E+00  -.9852055E+00  -.9841980E+00  -.9828215E+00  -.9808303E+00
  -.9778616E+00  -.9734987E+00  -.9673427E+00  -.9590855E+00  -.9485582E+00
  -.9357405E+00  -.9207550E+00  -.9038666E+00  -.8854706E+00  -.8660548E+00
  -.8461407E+00  -.8262244E+00  -.8067439E+00  -.7880716E+00  -.7704994E+00
  -.7542077E+00  -.7392496E+00  -.7255938E+00  -.7131987E+00  -.7020665E+00
  -.6922731E+00  -.6839657E+00  -.6773315E+00  -.6725583E+00  -.6697951E+00
  -.6691311E+00  -.6705870E+00  -.6741044E+00  -.6795342E+00  -.6866336E+00
  -.6950750E+00  -.7044704E+00  -.7144077E+00  -.7244940E+00  -.7343808E+00
  -.7437719E+00  -.7524398E+00  -.7602542E+00  -.7671980E+00  -.7733493E+00
  -.7788457E+00  -.7838556E+00  -.7885512E+00  -.7930820E+00  -.7975600E+00
  -.8020671E+00  -.8066698E+00  -.8114252E+00  -.8163791E+00  -.8215597E+00
  -.8269673E+00  -.8325647E+00  -.8382759E+00  -.8439917E+00  -.8495784E+00
  -.8548895E+00  -.8597815E+00  -.8641304E+00  -.8678389E+00  -.8708193E+00
  -.8729716E+00  -.8741750E+00  -.8742927E+00  -.8731897E+00  -.8707667E+00
  -.8670049E+00  -.8620077E+00  -.8560214E+00  -.8494152E+00  -.8426336E+00
  -.8361391E+00  -.8303482E+00  -.8255877E+00  -.8221003E+00  -.8200672E+00
  -.8196078E+00  -.8207711E+00  -.8235410E+00  -.8278554E+00  -.8336234E+00
  -.8407347E+00  -.8490583E+00  -.8584249E+00  -.8686027E+00  -.8792856E+00
  -.8900953E+00  -.9005951E+00  -.9103087E+00  -.9187498E+00  -.9254578E+00
  -.9300058E+00  -.9320025E+00  -.9311260E+00  -.9271772E+00  -.9201195E+00
  -.9100602E+00  -.8971965E+00  -.8817765E+00  -.8640733E+00  -.8443825E+00
  -.8230483E+00  -.8004889E+00  -.7771935E+00  -.7536955E+00  -.7305215E+00
  -.7081245E+00  -.6868322E+00  -.6668707E+00  -.6484250E+00  -.6316664E+00
  -.6167562E+00  -.6038390E+00  -.5930303E+00  -.5844141E+00  -.5780506E+00
  -.5739809E+00  -.5722252E+00  -.5727813E+00  -.5756243E+00  -.5807056E+00
  -.5879532E+00  -.5972737E+00  -.6085590E+00  -.6216953E+00  -.6365741E+00
  -.6530950E+00  -.6711555E+00  -.6906355E+00  -.7113923E+00  -.7332629E+00
  -.7560697E+00  -.7796242E+00  -.8037323E+00  -.8282119E+00  -.8529166E+00
  -.8777534E+00  -.9026718E+00  -.9276368E+00  -.9526123E+00  -.9775505E+00
  -.1002384E+01  -.1027025E+01  -.1051362E+01  -.1075269E+01  -.1098615E+01
  -.1121268E+01  -.1143089E+01  -.1163917E+01  -.1183567E+01  -.1201839E+01
  -.1218527E+01  -.1233426E+01  -.1246337E+01  -.1257064E+01  -.1265421E+01
  -.1271243E+01  -.1274399E+01  -.1274814E+01  -.1272502E+01  -.1267574E+01
  -.1260234E+01  -.1250747E+01  -.1239434E+01  -.1226658E+01  -.1212841E+01
  -.1198461E+01  -.1184046E+01  -.1170151E+01  -.1157316E+01  -.1146013E+01
  -.1136573E+01  -.1129182E+01  -.1123901E+01  -.1120683E+01  -.1119372E+01
  -.1119718E+01  -.1121401E+01  -.1124077E+01  -.1127429E+01  -.1131226E+01
  -.1135366E+01  -.1139865E+01  -.1144809E+01  -.1150308E+01  -.1156457E+01
  -.1163319E+01  -.1170916E+01  -.1179248E+01  -.1188309E+01  -.1198093E+01
  -.1208617E+01  -.1219923E+01  -.1232095E+01  -.1245258E+01  -.1259568E+01
  -.1275194E+01  -.1292291E+01  -.1310951E+01  -.1331171E+01  -.1352800E+01
  -.1375520E+01  -.1398860E+01  -.1422252E+01  -.1445106E+01  -.1466891E+01
  -.1487193E+01  -.1505728E+01  -.1522343E+01  -.1537013E+01  -.1549805E+01
  -.1560818E+01  -.1570140E+01  -.1577811E+01  -.1583800E+01  -.1587996E+01
  -.1590216E+01  -.1590215E+01  -.1587706E+01  -.1582392E+01  -.1573996E+01
  -.1562317E+01  -.1547274E+01  -.1528948E+01  -.1507567E+01  -.1483447E+01
  -.1456937E+01  -.1428374E+01  -.1398085E+01  -.1366423E+01  -.1333775E+01
  -.1300558E+01  -.1267202E+01  -.1234121E+01  -.1201684E+01  -.1170177E+01
  -.1139810E+01  -.1110743E+01  -.1083084E+01  -.1056885E+01  -.1032130E+01
  -.1008752E+01  -.9866921E+00  -.9659737E+00  -.9467427E+00  -.9292574E+00
  -.9138320E+00  -.9007703E+00  -.8902991E+00  -.8825246E+00  -.8774377E+00
  -.8749416E+00  -.8748609E+00  -.8769311E+00  -.8807833E+00  -.8859448E+00
  -.8918604E+00  -.8979302E+00  -.9035675E+00  -.9082820E+00  -.9117675E+00
  -.9139455E+00  -.9149392E+00  -.9150224E+00  -.9145762E+00  -.9140396E+00
  -.9138532E+00  -.9144059E+00  -.9159880E+00  -.9187376E+00  -.9225869E+00
  -.9272426E+00  -.9322332E+00  -.9369967E+00  -.9409723E+00  -.9436856E+00
  -.9447942E+00  -.9440734E+00  -.9413876E+00  -.9366809E+00  -.9299693E+00
  -.9213104E+00  -.9107640E+00  -.8983622E+00  -.8840922E+00  -.8678982E+00
  -.8497039E+00  -.8294456E+00  -.8071005E+00  -.7827024E+00  -.7563363E+00
  -.7281255E+00  -.6982179E+00  -.6667737E+00  -.6339626E+00  -.5999827E+00
  -.5650839E+00  -.5295782E+00  -.4938390E+00  -.4583008E+00  -.4234583E+00
  -.3898500E+00  -.3580171E+00  -.3284581E+00  -.3016181E+00  -.2778889E+00
  -.2575751E+00  -.2408461E+00  -.2277108E+00  -.2180477E+00  -.2116587E+00
  -.2083029E+00  -.2077039E+00  -.2095449E+00  -.2134748E+00  -.2191251E+00
  -.2261228E+00  -.2340851E+00  -.2426180E+00  -.2513400E+00  -.2599170E+00
  -.2680776E+00  -.2756100E+00  -.2823656E+00  -.2882792E+00  -.2933825E+00
  -.2977947E+00  -.3016997E+00  -.3053229E+00  -.3089065E+00  -.3126835E+00
  -.3168505E+00  -.3215343E+00  -.3267681E+00  -.3325044E+00  -.3386492E+00
  -.3450889E+00  -.3517129E+00  -.3584323E+00  -.3651851E+00  -.3719192E+00
  -.3785642E+00  -.3850123E+00  -.3911069E+00  -.3966437E+00  -.4013821E+00
  -.4050647E+00  -.4074357E+00  -.4082495E+00  -.4072792E+00  -.4043418E+00
  -.3993242E+00  -.3921895E+00  -.3829604E+00  -.3717010E+00  -.3585050E+00
  -.3434878E+00  -.3267871E+00  -.3085638E+00  -.2889958E+00  -.2682634E+00
  -.2465299E+00  -.2239206E+00  -.2005145E+00  -.1763650E+00  -.1515299E+00
  -.1260930E+00  -.1001759E+00  -.7394506E-01  -.4761012E-01  -.2141553E-01
   .4377458E-02   .2951709E-01   .5378338E-01   .7698054E-01   .9891027E-01
   .1193591E+00   .1381045E+00   .1549340E+00   .1696712E+00   .1821966E+00
   .1924640E+00   .2005227E+00   .2065397E+00   .2108051E+00   .2137131E+00
   .2157224E+00   .2173021E+00   .2188685E+00   .2207390E+00   .2231310E+00
   .2261776E+00   .2299240E+00   .2343245E+00   .2392622E+00   .2445855E+00
   .2501397E+00   .2557954E+00   .2614667E+00   .2671099E+00   .2727123E+00
   .2782883E+00   .2838773E+00   .2895413E+00   .2953625E+00   .3014387E+00
   .3078757E+00   .3147764E+00   .3222248E+00   .3302681E+00   .3388998E+00
   .3480541E+00   .3576132E+00   .3674191E+00   .3772897E+00   .3870374E+00
   .3964934E+00   .4055268E+00   .4140427E+00   .4219591E+00   .4291851E+00
   .4356094E+00   .4410970E+00   .4454929E+00   .4486266E+00   .4503218E+00
   .4504140E+00   .4487752E+00   .4453359E+00   .4400948E+00   .4331257E+00
   .4245853E+00   .4147131E+00   .4038147E+00   .3922265E+00   .3802699E+00
   .3682093E+00   .3562424E+00   .3445237E+00   .3331832E+00   .3223288E+00
   .3120371E+00   .3023392E+00   .2932078E+00   .2845581E+00   .2762618E+00
   .2681634E+00   .2601017E+00   .2519340E+00   .2435626E+00   .2349486E+00
   .2261063E+00   .2170928E+00   .2080029E+00   .1989643E+00   .1901348E+00
   .1817038E+00   .1738921E+00   .1669412E+00   .1610916E+00   .1565580E+00
   .1535148E+00   .1521011E+00   .1524234E+00   .1545466E+00   .1584779E+00
   .1641585E+00   .1714637E+00   .1802067E+00   .1901431E+00   .2009791E+00
   .2123778E+00   .2239702E+00   .2353801E+00   .2462624E+00   .2563312E+00
   .2653389E+00   .2730349E+00   .2791531E+00   .2834232E+00   .2855960E+00
   .2854713E+00   .2829165E+00   .2778833E+00   .2704348E+00   .2607649E+00
   .2491865E+00   .2360907E+00   .2218979E+00   .2070178E+00   .1918455E+00
   .1767799E+00   .1622200E+00   .1485362E+00   .1360361E+00   .1249507E+00
   .1154366E+00   .1075721E+00   .1013611E+00   .9675282E-01   .9366063E-01
   .9197350E-01   .9156218E-01   .9227583E-01   .9393397E-01   .9632505E-01
   .9921322E-01   .1023476E+00   .1054619E+00   .1082719E+00   .1104864E+00
   .1118326E+00   .1120762E+00   .1110063E+00   .1084064E+00   .1040505E+00
   .9771757E-01   .8921612E-01   .7841200E-01   .6526141E-01   .4984993E-01
   .3242367E-01   .1339011E-01  -.6724321E-02  -.2734324E-01  -.4791511E-01
  -.6796726E-01  -.8710781E-01  -.1050112E+00  -.1214263E+00  -.1361782E+00
  -.1491475E+00  -.1602489E+00  -.1694255E+00  -.1766471E+00  -.1819036E+00
  -.1851980E+00  -.1865481E+00  -.1859893E+00  -.1835786E+00  -.1793953E+00
  -.1735411E+00  -.1661374E+00  -.1573237E+00  -.1472668E+00  -.1361774E+00
  -.1243180E+00  -.1119939E+00  -.9953190E-01  -.8725592E-01  -.7545928E-01
  -.6436455E-01  -.5407652E-01  -.4455322E-01  -.3560957E-01  -.2693674E-01
  -.1812547E-01  -.8698752E-02   .1847927E-02   .1399550E-01   .2813524E-01
   .4451007E-01   .6321164E-01   .8422059E-01   .1074389E+00   .1327110E+00
   .1598432E+00   .1886217E+00   .2188303E+00   .2502697E+00   .2827810E+00
   .3162617E+00   .3506556E+00   .3859156E+00   .4219668E+00   .4586802E+00
   .4958574E+00   .5332257E+00   .5704462E+00   .6071340E+00   .6428934E+00
   .6773663E+00   .7102717E+00   .7413953E+00   .7705555E+00   .7975937E+00
   .8223815E+00   .8448333E+00   .8649143E+00   .8826479E+00   .8981288E+00
   .9115347E+00   .9231273E+00   .9332368E+00   .9422331E+00   .9504889E+00
   .9583519E+00   .9661405E+00   .9741444E+00   .9826029E+00   .9916803E+00
   .1001466E+01   .1012001E+01   .1023301E+01   .1035366E+01   .1048188E+01
   .1061739E+01   .1075972E+01   .1090809E+01   .1106131E+01   .1121771E+01
   .1137509E+01   .1153060E+01   .1168055E+01   .1182054E+01   .1194565E+01
   .1205108E+01   .1213275E+01   .1218794E+01   .1221568E+01   .1221707E+01
   .1219504E+01   .1215347E+01   .1209632E+01   .1202736E+01   .1195032E+01
   .1186905E+01   .1178739E+01   .1170917E+01   .1163805E+01   .1157738E+01
   .1152980E+01   .1149707E+01   .1148003E+01   .1147853E+01   .1149136E+01
   .1151623E+01   .1155012E+01   .1158972E+01   .1163195E+01   .1167452E+01
   .1171628E+01   .1175689E+01   .1179625E+01   .1183397E+01   .1186918E+01
   .1190047E+01   .1192603E+01   .1194384E+01   .1195199E+01   .1194892E+01
   .1193350E+01   .1190494E+01   .1186260E+01   .1180602E+01   .1173484E+01
   .1164882E+01   .1154777E+01   .1143154E+01   .1130009E+01   .1115349E+01
   .1099200E+01   .1081610E+01   .1062653E+01   .1042432E+01   .1021066E+01
   .9986907E+00   .9754332E+00   .9513986E+00   .9266484E+00   .9011906E+00
   .8749980E+00   .8480489E+00   .8203669E+00   .7920576E+00   .7633369E+00
   .7345458E+00   .7061469E+00   .6787011E+00   .6528248E+00   .6291318E+00
   .6081575E+00   .5902724E+00   .5756310E+00   .5642067E+00   .5558656E+00
   .5504225E+00   .5476870E+00   .5475053E+00   .5497800E+00   .5544607E+00
   .5615260E+00   .5709679E+00   .5827781E+00   .5969353E+00   .6133936E+00
   .6320756E+00   .6528677E+00   .6756204E+00   .7001462E+00   .7262092E+00
   .7535186E+00   .7817372E+00   .8105005E+00   .8394367E+00   .8681880E+00
   .8964407E+00   .9239572E+00   .9505759E+00   .9761776E+00   .1000655E+01
   .1023895E+01   .1045775E+01   .1066155E+01   .1084884E+01   .1101812E+01
   .1116817E+01   .1129806E+01   .1140723E+01   .1149541E+01   .1156264E+01
   .1160939E+01   .1163656E+01   .1164557E+01   .1163830E+01   .1161707E+01
   .1158443E+01   .1154299E+01   .1149526E+01   .1144347E+01   .1138921E+01
   .1133320E+01   .1127522E+01   .1121438E+01   .1114950E+01   .1107936E+01
   .1100305E+01   .1092032E+01   .1083180E+01   .1073902E+01   .1064421E+01
   .1055008E+01   .1045950E+01   .1037505E+01   .1029870E+01   .1023156E+01
   .1017410E+01   .1012630E+01   .1008784E+01   .1005814E+01   .1003641E+01
   .1002175E+01   .1001313E+01   .1000957E+01   .1001021E+01   .1001446E+01
   .1002210E+01   .1003324E+01   .1004824E+01   .1006763E+01   .1009206E+01
   .1012226E+01   .1015889E+01   .1020253E+01   .1025353E+01   .1031189E+01
   .1037713E+01   .1044821E+01   .1052364E+01   .1060150E+01   .1067964E+01
   .1075596E+01   .1082856E+01   .1089594E+01   .1095697E+01   .1101108E+01
   .1105843E+01   .1109998E+01   .1113733E+01   .1117222E+01   .1120601E+01
   .1123936E+01   .1127218E+01   .1130385E+01   .1133345E+01   .1135992E+01
   .1138231E+01   .1140004E+01   .1141308E+01   .1142211E+01   .1142854E+01
   .1143453E+01   .1144287E+01   .1145675E+01   .1147930E+01   .1151312E+01
   .1155969E+01   .1161908E+01   .1169002E+01   .1177014E+01   .1185624E+01
   .1194453E+01   .1203094E+01   .1211154E+01   .1218297E+01   .1224293E+01
   .1229022E+01   .1232438E+01   .1234534E+01   .1235320E+01   .1234811E+01
   .1233025E+01   .1229992E+01   .1225757E+01   .1220389E+01   .1213989E+01
   .1206695E+01   .1198671E+01   .1190103E+01   .1181175E+01   .1172045E+01
   .1162831E+01   .1153621E+01   .1144492E+01   .1135511E+01   .1126739E+01
   .1118219E+01   .1109963E+01   .1101951E+01   .1094117E+01   .1086363E+01
   .1078574E+01   .1070630E+01   .1062434E+01   .1053925E+01   .1045093E+01
   .1035970E+01   .1026629E+01   .1017185E+01   .1007788E+01   .9986115E+00
   .9898422E+00   .9816635E+00   .9742584E+00   .9678188E+00   .9625381E+00
   .9585848E+00   .9560598E+00   .9549530E+00   .9551117E+00   .9562629E+00
   .9581445E+00   .9605710E+00   .9633792E+00   .9663959E+00   .9694313E+00
   .9722813E+00   .9747407E+00   .9766257E+00   .9778010E+00   .9781945E+00
   .9777838E+00   .9765709E+00   .9745680E+00   .9717901E+00   .9682545E+00
   .9639834E+00   .9590058E+00   .9533572E+00   .9470783E+00   .9402116E+00
   .9327957E+00   .9248575E+00   .9164032E+00   .9074075E+00   .8978076E+00
   .8875071E+00   .8763888E+00   .8643327E+00   .8512356E+00   .8370326E+00
   .8217093E+00   .8052889E+00   .7878041E+00   .7692748E+00   .7496926E+00
   .7290144E+00   .7071684E+00   .6840666E+00   .6596244E+00   .6337847E+00
   .6065474E+00   .5779945E+00   .5483074E+00   .5177766E+00   .4868024E+00
   .4558871E+00   .4256252E+00   .3966857E+00   .3697684E+00   .3455306E+00
   .3245065E+00   .3070692E+00   .2934443E+00   .2837425E+00   .2780124E+00
   .2762971E+00   .2786661E+00   .2852160E+00   .2960299E+00   .3111099E+00
   .3303113E+00   .3532893E+00   .3794776E+00   .4081356E+00   .4384666E+00
   .4697532E+00   .5014422E+00   .5331238E+00   .5644722E+00   .5952292E+00
   .6252081E+00   .6542856E+00   .6823638E+00   .7093237E+00   .7350015E+00
   .7591870E+00   .7816417E+00   .8021310E+00   .8204602E+00   .8364982E+00
   .8501669E+00   .8614179E+00   .8702199E+00   .8765527E+00   .8804037E+00
   .8817677E+00   .8806489E+00   .8770669E+00   .8710633E+00   .8627105E+00
   .8521209E+00   .8394548E+00   .8249236E+00   .8087837E+00   .7913256E+00
   .7728664E+00   .7537359E+00   .7342465E+00   .7146535E+00   .6951313E+00
   .6757864E+00   .6566857E+00   .6378696E+00   .6193576E+00   .6011550E+00
   .5832644E+00   .5656991E+00   .5484920E+00   .5317015E+00   .5154145E+00
   .4997467E+00   .4848376E+00   .4708402E+00   .4579083E+00   .4461856E+00
   .4357981E+00   .4268379E+00   .4193438E+00   .4132851E+00   .4085664E+00
   .4050483E+00   .4025708E+00   .4009759E+00   .4001251E+00   .3998968E+00
   .4001697E+00   .4008137E+00   .4016910E+00   .4026638E+00   .4036076E+00
   .4044210E+00   .4050247E+00   .4053576E+00   .4053799E+00   .4050765E+00
   .4044509E+00   .4035129E+00   .4022673E+00   .4007065E+00   .3988051E+00
   .3965186E+00   .3937866E+00   .3905423E+00   .3867324E+00   .3823530E+00
   .3774922E+00   .3723618E+00   .3673072E+00   .3627733E+00   .3592269E+00
   .3570625E+00   .3565331E+00   .3577609E+00   .3607897E+00   .3656117E+00
   .3721734E+00   .3803634E+00   .3899905E+00   .4007682E+00   .4123174E+00
   .4241926E+00   .4359372E+00   .4471578E+00   .4575911E+00   .4671274E+00
   .4757967E+00   .4837602E+00   .4913010E+00   .4987944E+00   .5066487E+00
   .5152288E+00   .5247796E+00   .5353738E+00   .5469355E+00   .5593226E+00
   .5724054E+00   .5861259E+00   .6005252E+00   .6157281E+00   .6319071E+00
   .6492413E+00   .6678694E+00   .6878465E+00   .7091244E+00   .7315620E+00
   .7549442E+00   .7790049E+00   .8034502E+00   .8279727E+00   .8522485E+00
   .8759397E+00   .8987184E+00   .9203040E+00   .9405051E+00   .9592384E+00
   .9765014E+00   .9923228E+00   .1006727E+01   .1019712E+01   .1031228E+01
   .1041180E+01   .1049438E+01   .1055844E+01   .1060247E+01   .1062530E+01
   .1062647E+01   .1060652E+01   .1056702E+01   .1051037E+01   .1043960E+01
   .1035802E+01   .1026889E+01   .1017514E+01   .1007930E+01   .9983469E+00
   .9889072E+00   .9796735E+00   .9706405E+00   .9617652E+00   .9529878E+00
   .9442477E+00   .9354959E+00   .9267009E+00   .9178436E+00   .9089081E+00
   .8998753E+00   .8907209E+00   .8814169E+00   .8719376E+00   .8622718E+00
   .8524400E+00   .8425143E+00   .8326361E+00   .8230283E+00   .8139952E+00
   .8059071E+00   .7991667E+00   .7941631E+00   .7912285E+00   .7906321E+00
   .7925980E+00   .7973065E+00   .8048751E+00   .8153386E+00   .8286439E+00
   .8446586E+00   .8631744E+00   .8839009E+00   .9064552E+00   .9303612E+00
   .9550708E+00   .9800027E+00   .1004586E+01   .1028298E+01   .1050710E+01
   .1071515E+01   .1090517E+01   .1107591E+01   .1122679E+01   .1135780E+01
   .1146939E+01   .1156212E+01   .1163646E+01   .1169267E+01   .1173087E+01
   .1175129E+01   .1175460E+01   .1174216E+01   .1171621E+01   .1168005E+01
   .1163801E+01   .1159526E+01   .1155737E+01   .1152964E+01   .1151645E+01
   .1152092E+01   .1154518E+01   .1159037E+01   .1165670E+01   .1174325E+01
   .1184813E+01   .1196885E+01   .1210299E+01   .1224870E+01   .1240511E+01
   .1257228E+01   .1275065E+01   .1294047E+01   .1314124E+01   .1335128E+01
   .1356744E+01   .1378506E+01   .1399846E+01   .1420170E+01   .1438944E+01
   .1455735E+01   .1470209E+01   .1482114E+01   .1491290E+01   .1497679E+01
   .1501315E+01   .1502327E+01   .1500945E+01   .1497518E+01   .1492524E+01
   .1486560E+01   .1480310E+01   .1474476E+01   .1469695E+01   .1466445E+01
   .1465026E+01   .1465608E+01   .1468266E+01   .1472996E+01   .1479711E+01
   .1488241E+01   .1498323E+01   .1509607E+01   .1521664E+01   .1534019E+01
   .1546194E+01   .1557760E+01   .1568367E+01   .1577752E+01   .1585744E+01
   .1592248E+01   .1597226E+01   .1600660E+01   .1602545E+01   .1602879E+01
   .1601658E+01   .1598869E+01   .1594494E+01   .1588501E+01   .1580858E+01
   .1571532E+01   .1560504E+01   .1547783E+01   .1533414E+01   .1517488E+01
   .1500140E+01   .1481533E+01   .1461832E+01   .1441174E+01   .1419648E+01
   .1397294E+01   .1374147E+01   .1350276E+01   .1325828E+01   .1301042E+01
   .1276255E+01   .1251876E+01   .1228360E+01   .1206165E+01   .1185714E+01
   .1167333E+01   .1151199E+01   .1137330E+01   .1125637E+01   .1115968E+01
   .1108123E+01   .1101874E+01   .1096975E+01   .1093173E+01   .1090209E+01
   .1087820E+01   .1085741E+01   .1083689E+01   .1081346E+01   .1078362E+01
   .1074358E+01   .1068946E+01   .1061774E+01   .1052574E+01   .1041196E+01
   .1027575E+01   .1011688E+01   .9935232E+00   .9730736E+00   .9503386E+00
   .9253506E+00   .8982048E+00   .8690839E+00   .8382691E+00   .8061280E+00
   .7730860E+00   .7395971E+00   .7061334E+00   .6731831E+00   .6412223E+00
   .6106636E+00   .5818107E+00   .5548670E+00   .5299686E+00   .5071917E+00
   .4865417E+00   .4679395E+00   .4512125E+00   .4361053E+00   .4223078E+00
   .4094912E+00   .3973508E+00   .3856473E+00   .3742182E+00   .3629594E+00
   .3518088E+00   .3407413E+00   .3297678E+00   .3189260E+00   .3082664E+00
   .2978391E+00   .2876833E+00   .2778182E+00   .2682369E+00   .2589068E+00
   .2497811E+00   .2408170E+00   .2319937E+00   .2233307E+00   .2149041E+00
   .2068586E+00   .1994117E+00   .1928462E+00   .1874885E+00   .1836710E+00
   .1816789E+00   .1816894E+00   .1837234E+00   .1876521E+00   .1932439E+00
   .2002042E+00   .2082001E+00   .2168857E+00   .2259276E+00   .2350039E+00
   .2437680E+00   .2518131E+00   .2586676E+00   .2638180E+00   .2667550E+00
   .2670283E+00   .2642753E+00   .2582417E+00   .2488148E+00   .2360314E+00
   .2200386E+00   .2010404E+00   .1792615E+00   .1549382E+00   .1283376E+00
   .9977836E-01   .6963081E-01   .3830218E-01   .6214562E-02  -.2622069E-01
  -.5864269E-01  -.9079655E-01  -.1225754E+00  -.1539996E+00  -.1851585E+00
  -.2161668E+00  -.2471264E+00  -.2780932E+00  -.3090551E+00  -.3399299E+00
  -.3705725E+00  -.4007845E+00  -.4303282E+00  -.4589410E+00  -.4863506E+00
  -.5123013E+00  -.5365903E+00  -.5591035E+00  -.5798286E+00  -.5988337E+00
  -.6162354E+00  -.6321784E+00  -.6468290E+00  -.6603828E+00  -.6730708E+00
  -.6851541E+00  -.6969080E+00  -.7085993E+00  -.7204685E+00  -.7327307E+00
  -.7455789E+00  -.7591691E+00  -.7735991E+00  -.7888983E+00  -.8050384E+00
  -.8219483E+00  -.8395236E+00  -.8576287E+00  -.8760926E+00  -.8947033E+00
  -.9132151E+00  -.9313677E+00  -.9489177E+00  -.9656765E+00  -.9815397E+00
  -.9964771E+00  -.1010502E+01  -.1023651E+01  -.1035971E+01  -.1047506E+01
  -.1058290E+01  -.1068342E+01  -.1077674E+01  -.1086294E+01  -.1094208E+01
  -.1101423E+01  -.1107949E+01  -.1113799E+01  -.1118986E+01  -.1123527E+01
  -.1127443E+01  -.1130757E+01  -.1133495E+01  -.1135684E+01  -.1137343E+01
  -.1138483E+01  -.1139103E+01  -.1139187E+01  -.1138714E+01  -.1137652E+01
  -.1135971E+01  -.1133645E+01  -.1130664E+01  -.1127046E+01  -.1122841E+01
  -.1118138E+01  -.1113073E+01  -.1107815E+01  -.1102558E+01  -.1097496E+01
  -.1092790E+01  -.1088531E+01  -.1084715E+01  -.1081247E+01  -.1077966E+01
  -.1074672E+01  -.1071155E+01  -.1067226E+01  -.1062750E+01  -.1057650E+01
  -.1051890E+01  -.1045456E+01  -.1038349E+01  -.1030574E+01  -.1022148E+01
  -.1013095E+01  -.1003453E+01  -.9932891E+00  -.9827129E+00  -.9718995E+00
  -.9611077E+00  -.9506814E+00  -.9410332E+00  -.9326057E+00  -.9258141E+00
  -.9209731E+00  -.9182392E+00  -.9176150E+00  -.9189916E+00  -.9221759E+00
  -.9269128E+00  -.9329107E+00  -.9398647E+00  -.9474635E+00  -.9553861E+00
  -.9633120E+00  -.9709438E+00  -.9780235E+00  -.9843115E+00  -.9895518E+00
  -.9934657E+00  -.9957696E+00  -.9962096E+00  -.9946074E+00  -.9908933E+00
  -.9850916E+00  -.9772944E+00  -.9676625E+00  -.9564246E+00  -.9438696E+00
  -.9303366E+00  -.9161926E+00  -.9017943E+00  -.8874367E+00  -.8733048E+00
  -.8594615E+00  -.8458877E+00  -.8325380E+00  -.8193838E+00  -.8064461E+00
  -.7938194E+00  -.7816716E+00  -.7702166E+00  -.7596704E+00  -.7502019E+00
  -.7418879E+00  -.7346931E+00  -.7284999E+00  -.7231650E+00  -.7185682E+00
  -.7146523E+00  -.7114353E+00  -.7089881E+00  -.7073953E+00  -.7067183E+00
  -.7069600E+00  -.7080373E+00  -.7097774E+00  -.7119425E+00  -.7142679E+00
  -.7165047E+00  -.7184587E+00  -.7199984E+00  -.7210420E+00  -.7215508E+00
  -.7215329E+00  -.7210481E+00  -.7202083E+00  -.7191729E+00  -.7181366E+00
  -.7173181E+00  -.7169518E+00  -.7172796E+00  -.7185301E+00  -.7208857E+00
  -.7244435E+00  -.7291888E+00  -.7350093E+00  -.7417351E+00  -.7491733E+00
  -.7571410E+00  -.7654896E+00  -.7741066E+00  -.7828974E+00  -.7917731E+00
  -.8006440E+00  -.8094142E+00  -.8179688E+00  -.8261562E+00  -.8337792E+00
  -.8406011E+00  -.8463658E+00  -.8508328E+00  -.8538206E+00  -.8552475E+00
  -.8551437E+00  -.8536218E+00  -.8508427E+00  -.8469983E+00  -.8422930E+00
  -.8369189E+00  -.8310314E+00  -.8247443E+00  -.8181496E+00  -.8113421E+00
  -.8044314E+00  -.7975443E+00  -.7908178E+00  -.7843843E+00  -.7783526E+00
  -.7727953E+00  -.7677457E+00  -.7631913E+00  -.7590656E+00  -.7552397E+00
  -.7515213E+00  -.7476629E+00  -.7433816E+00  -.7383932E+00  -.7324586E+00
  -.7254373E+00  -.7173313E+00  -.7082885E+00  -.6985588E+00  -.6884375E+00
  -.6782070E+00  -.6680805E+00  -.6581683E+00  -.6484890E+00  -.6390047E+00
  -.6296465E+00  -.6203380E+00  -.6110184E+00  -.6016584E+00  -.5922688E+00
  -.5829022E+00  -.5736524E+00  -.5646483E+00  -.5560420E+00  -.5479900E+00
  -.5406331E+00  -.5340833E+00  -.5284188E+00  -.5236768E+00  -.5198416E+00
  -.5168327E+00  -.5144999E+00  -.5126328E+00  -.5109913E+00  -.5093463E+00
  -.5075153E+00  -.5053743E+00  -.5028450E+00  -.4998844E+00  -.4964846E+00
  -.4926775E+00  -.4885424E+00  -.4842119E+00  -.4798731E+00  -.4757625E+00
  -.4721509E+00  -.4693196E+00  -.4675277E+00  -.4669855E+00  -.4678613E+00
  -.4703017E+00  -.4744330E+00  -.4803491E+00  -.4880959E+00  -.4976623E+00
  -.5089783E+00  -.5219111E+00  -.5362617E+00  -.5517674E+00  -.5681109E+00
  -.5849359E+00  -.6018724E+00  -.6185740E+00  -.6347519E+00  -.6501686E+00
  -.6646060E+00  -.6778494E+00  -.6896921E+00  -.6999533E+00  -.7084966E+00
  -.7152340E+00  -.7201115E+00  -.7230973E+00  -.7241806E+00  -.7233731E+00
  -.7207115E+00  -.7162556E+00  -.7100826E+00  -.7022798E+00  -.6929356E+00
  -.6821330E+00  -.6699507E+00  -.6564716E+00  -.6417853E+00  -.6259846E+00
  -.6091596E+00  -.5913946E+00  -.5727699E+00  -.5533624E+00  -.5332404E+00
  -.5124550E+00  -.4910314E+00  -.4689694E+00  -.4462581E+00  -.4228991E+00
  -.3989244E+00  -.3744099E+00  -.3494791E+00  -.3242965E+00  -.2990534E+00
  -.2739459E+00  -.2491499E+00  -.2247983E+00  -.2009817E+00  -.1777718E+00
  -.1552460E+00  -.1335041E+00  -.1126780E+00  -.9293673E-01  -.7448593E-01
  -.5756949E-01  -.4247850E-01  -.2955479E-01  -.1917436E-01  -.1171868E-01
  -.7549340E-02  -.6977441E-02  -.1021504E-01  -.1732568E-01  -.2820853E-01
  -.4263293E-01  -.6029256E-01  -.8084906E-01  -.1039565E+00  -.1292720E+00
  -.1564733E+00  -.1852875E+00  -.2155115E+00  -.2469913E+00  -.2795800E+00
  -.3131127E+00  -.3473860E+00  -.3821264E+00  -.4169615E+00  -.4514184E+00
  -.4849493E+00  -.5169845E+00  -.5470059E+00  -.5746187E+00  -.5995719E+00
  -.6217239E+00  -.6410068E+00  -.6574079E+00  -.6709596E+00  -.6817337E+00
  -.6898364E+00  -.6953989E+00  -.6985649E+00  -.6994763E+00  -.6982610E+00
  -.6950295E+00  -.6899003E+00  -.6830366E+00  -.6746681E+00  -.6650954E+00
  -.6546783E+00  -.6438016E+00  -.6328288E+00  -.6220748E+00  -.6118170E+00
  -.6023081E+00  -.5937681E+00  -.5863698E+00  -.5802404E+00  -.5754801E+00
  -.5721762E+00  -.5704027E+00  -.5702124E+00  -.5716257E+00  -.5746172E+00
  -.5791039E+00  -.5849371E+00  -.5919059E+00  -.5997631E+00  -.6082693E+00
  -.6172412E+00  -.6265962E+00  -.6363669E+00  -.6466716E+00  -.6576679E+00
  -.6695099E+00  -.6823085E+00  -.6961018E+00  -.7108610E+00  -.7265174E+00
  -.7429842E+00  -.7601750E+00  -.7780160E+00  -.7964395E+00  -.8153629E+00
  -.8346717E+00  -.8542093E+00  -.8737743E+00  -.8931274E+00  -.9120106E+00
  -.9301766E+00  -.9474269E+00  -.9636423E+00  -.9787791E+00  -.9928292E+00
  -.1005776E+01  -.1017563E+01  -.1028067E+01  -.1037085E+01  -.1044346E+01
  -.1049533E+01  -.1052331E+01  -.1052474E+01  -.1049804E+01  -.1044293E+01
  -.1036011E+01  -.1025064E+01  -.1011553E+01  -.9955598E+00  -.9771692E+00
  -.9565120E+00  -.9337926E+00  -.9093072E+00  -.8834464E+00  -.8566775E+00
  -.8295060E+00  -.8024184E+00  -.7758271E+00  -.7500570E+00  -.7253525E+00
  -.7018618E+00  -.6796267E+00  -.6586034E+00  -.6386973E+00  -.6197901E+00
  -.6017636E+00  -.5845218E+00  -.5680023E+00  -.5521750E+00  -.5370373E+00
  -.5226135E+00  -.5089566E+00  -.4961497E+00  -.4843057E+00  -.4735639E+00
  -.4640823E+00  -.4560238E+00  -.4495396E+00  -.4447567E+00  -.4417803E+00
  -.4406978E+00  -.4415703E+00  -.4444143E+00  -.4491797E+00  -.4557271E+00
  -.4638135E+00  -.4730881E+00  -.4831008E+00  -.4933261E+00  -.5031970E+00
  -.5121477E+00  -.5196722E+00  -.5253894E+00  -.5290685E+00  -.5305914E+00
  -.5299021E+00  -.5269827E+00  -.5218431E+00  -.5145192E+00  -.5050790E+00
  -.4936336E+00  -.4803507E+00  -.4654639E+00  -.4492731E+00  -.4321367E+00
  -.4144602E+00  -.3966878E+00  -.3792831E+00  -.3626842E+00  -.3472454E+00
  -.3332005E+00  -.3206803E+00  -.3097515E+00  -.3004326E+00  -.2926998E+00
  -.2864897E+00  -.2817057E+00  -.2782287E+00  -.2759316E+00  -.2746953E+00
  -.2744235E+00  -.2750474E+00  -.2765204E+00  -.2788140E+00  -.2819208E+00
  -.2858598E+00  -.2906815E+00  -.2964711E+00  -.3033420E+00  -.3114207E+00
  -.3208251E+00  -.3316378E+00  -.3438796E+00  -.3574891E+00  -.3723284E+00
  -.3882101E+00  -.4049286E+00  -.4222937E+00  -.4401566E+00  -.4584114E+00
  -.4769773E+00  -.4957861E+00  -.5147775E+00  -.5338961E+00  -.5530880E+00
  -.5722914E+00  -.5914284E+00  -.6104030E+00  -.6291066E+00  -.6474263E+00
  -.6652538E+00  -.6824812E+00  -.6989934E+00  -.7146710E+00  -.7294007E+00
  -.7430921E+00  -.7556977E+00  -.7672291E+00  -.7777587E+00  -.7874064E+00
  -.7963233E+00  -.8046710E+00  -.8125949E+00  -.8201963E+00  -.8275097E+00
  -.8345068E+00  -.8411162E+00  -.8472400E+00  -.8527714E+00  -.8576138E+00
  -.8617016E+00  -.8650115E+00  -.8675605E+00  -.8693941E+00  -.8705766E+00
  -.8711817E+00  -.8712806E+00  -.8709310E+00  -.8701700E+00  -.8690219E+00
  -.8675126E+00  -.8656799E+00  -.8635807E+00  -.8612944E+00  -.8589209E+00
  -.8565728E+00  -.8543612E+00  -.8523774E+00  -.8506737E+00  -.8492565E+00
  -.8480918E+00  -.8471141E+00  -.8462342E+00  -.8453511E+00  -.8443663E+00
  -.8432011E+00  -.8418097E+00  -.8401794E+00  -.8383212E+00  -.8362647E+00
  -.8340528E+00  -.8317362E+00  -.8293657E+00  -.8269844E+00  -.8246195E+00
  -.8222791E+00  -.8199535E+00  -.8176175E+00  -.8152324E+00  -.8127495E+00
  -.8101142E+00  -.8072729E+00  -.8041794E+00  -.8008000E+00  -.7971123E+00
  -.7931026E+00  -.7887654E+00  -.7841049E+00  -.7791359E+00  -.7738856E+00
  -.7683928E+00  -.7627055E+00  -.7568753E+00  -.7509497E+00  -.7449640E+00
  -.7389313E+00  -.7328372E+00  -.7266418E+00  -.7202906E+00  -.7137276E+00
  -.7069087E+00  -.6998169E+00  -.6924766E+00  -.6849622E+00  -.6773953E+00
  -.6699287E+00  -.6627239E+00  -.6559222E+00  -.6496113E+00  -.6437947E+00
  -.6383810E+00  -.6332012E+00  -.6280401E+00  -.6226710E+00  -.6168932E+00
  -.6105610E+00  -.6035811E+00  -.5958928E+00  -.5874586E+00  -.5782614E+00
  -.5683038E+00  -.5576075E+00  -.5462102E+00  -.5341575E+00  -.5214941E+00
  -.5082557E+00  -.4944632E+00  -.4801184E+00  -.4652031E+00  -.4496893E+00
  -.4335626E+00  -.4168532E+00  -.3996625E+00  -.3821832E+00  -.3647091E+00
  -.3476285E+00  -.3313956E+00  -.3164760E+00  -.3032744E+00  -.2920659E+00
  -.2829755E+00  -.2760085E+00  -.2710844E+00  -.2680576E+00  -.2667342E+00
  -.2668814E+00  -.2682274E+00  -.2704624E+00  -.2732561E+00  -.2762896E+00
  -.2792983E+00  -.2821152E+00  -.2846840E+00  -.2870312E+00  -.2892245E+00
  -.2913433E+00  -.2934564E+00  -.2956071E+00  -.2978122E+00  -.3000683E+00
  -.3023574E+00  -.3046522E+00  -.3069236E+00  -.3091477E+00  -.3113134E+00
  -.3134289E+00  -.3155259E+00  -.3176621E+00  -.3199189E+00  -.3223954E+00
  -.3251970E+00  -.3284198E+00  -.3321312E+00  -.3363520E+00  -.3410483E+00
  -.3461390E+00  -.3515098E+00  -.3570291E+00  -.3625660E+00  -.3680097E+00
  -.3732831E+00  -.3783365E+00  -.3831257E+00  -.3875931E+00  -.3916555E+00
  -.3951968E+00  -.3980671E+00  -.4000857E+00  -.4010438E+00  -.4007132E+00
  -.3988708E+00  -.3953363E+00  -.3900170E+00  -.3829449E+00  -.3742804E+00
  -.3642862E+00  -.3532943E+00  -.3416688E+00  -.3297706E+00  -.3179467E+00
  -.3065312E+00  -.2958322E+00  -.2861009E+00  -.2775073E+00  -.2701510E+00
  -.2640902E+00  -.2593544E+00  -.2559461E+00  -.2538415E+00  -.2529926E+00
  -.2533378E+00  -.2548143E+00  -.2573698E+00  -.2609739E+00  -.2656250E+00
  -.2713435E+00  -.2781580E+00  -.2860932E+00  -.2951579E+00  -.3053351E+00
  -.3165727E+00  -.3287811E+00  -.3418365E+00  -.3555900E+00  -.3698802E+00
  -.3845471E+00  -.3994372E+00  -.4143966E+00  -.4292641E+00  -.4438764E+00
  -.4580792E+00  -.4717404E+00  -.4847506E+00  -.4970050E+00  -.5083856E+00
  -.5187550E+00  -.5279608E+00  -.5358466E+00  -.5422663E+00  -.5471027E+00
  -.5502899E+00  -.5518318E+00  -.5517931E+00  -.5502711E+00  -.5473660E+00
  -.5431558E+00  -.5376778E+00  -.5309331E+00  -.5229120E+00  -.5136246E+00
  -.5031264E+00  -.4915383E+00  -.4790565E+00  -.4659404E+00  -.4524813E+00
  -.4389604E+00  -.4256076E+00  -.4125831E+00  -.3999946E+00  -.3879211E+00
  -.3764222E+00  -.3655394E+00  -.3552943E+00  -.3456864E+00  -.3366961E+00
  -.3282884E+00  -.3204150E+00  -.3130153E+00  -.3060173E+00  -.2993364E+00
  -.2928714E+00  -.2865047E+00  -.2801098E+00  -.2735669E+00  -.2667823E+00
  -.2597065E+00  -.2523358E+00  -.2447050E+00  -.2368829E+00  -.2289687E+00
  -.2210847E+00  -.2133663E+00  -.2059519E+00  -.1989734E+00  -.1925437E+00
  -.1867397E+00  -.1815850E+00  -.1770455E+00  -.1730497E+00  -.1695209E+00
  -.1664073E+00  -.1637082E+00  -.1614903E+00  -.1598864E+00  -.1590810E+00
  -.1592879E+00  -.1607204E+00  -.1635529E+00  -.1678859E+00  -.1737325E+00
  -.1810306E+00  -.1896597E+00  -.1994539E+00  -.2102161E+00  -.2217299E+00
  -.2337570E+00  -.2460150E+00  -.2581601E+00  -.2697931E+00  -.2804916E+00
  -.2898709E+00  -.2976568E+00  -.3037242E+00  -.3080636E+00  -.3107183E+00
  -.3117446E+00  -.3111938E+00  -.3091114E+00  -.3055442E+00  -.3005456E+00
  -.2941822E+00  -.2865406E+00  -.2777379E+00  -.2679350E+00  -.2573468E+00
  -.2462391E+00  -.2349120E+00  -.2236706E+00  -.2127931E+00  -.2025172E+00
  -.1930572E+00  -.1846213E+00  -.1774072E+00  -.1715835E+00  -.1672610E+00
  -.1644632E+00  -.1631098E+00  -.1630329E+00  -.1640113E+00  -.1658085E+00
  -.1682153E+00  -.1710956E+00  -.1744216E+00  -.1782670E+00  -.1827744E+00
  -.1881253E+00  -.1945081E+00  -.2020808E+00  -.2109368E+00  -.2210881E+00
  -.2324760E+00  -.2449924E+00  -.2584994E+00  -.2728485E+00  -.2878975E+00
  -.3035122E+00  -.3195538E+00  -.3358691E+00  -.3522900E+00  -.3686406E+00
  -.3847502E+00  -.4004718E+00  -.4157062E+00  -.4304183E+00  -.4446244E+00
  -.4583568E+00  -.4716299E+00  -.4844135E+00  -.4966135E+00  -.5080665E+00
  -.5185492E+00  -.5277980E+00  -.5355416E+00  -.5415460E+00  -.5456660E+00
  -.5478857E+00  -.5483161E+00  -.5471562E+00  -.5446526E+00  -.5410655E+00
  -.5366525E+00  -.5316747E+00  -.5264020E+00  -.5210999E+00  -.5160033E+00
  -.5112847E+00  -.5070342E+00  -.5032699E+00  -.4999608E+00  -.4970396E+00
  -.4944116E+00  -.4919645E+00  -.4895810E+00  -.4871533E+00  -.4845988E+00
  -.4818692E+00  -.4789447E+00  -.4758232E+00  -.4725147E+00  -.4690382E+00
  -.4654203E+00  -.4616939E+00  -.4578968E+00  -.4540692E+00  -.4502502E+00
  -.4464730E+00  -.4427599E+00  -.4391201E+00  -.4355513E+00  -.4320435E+00
  -.4285807E+00  -.4251427E+00  -.4217072E+00  -.4182534E+00  -.4147647E+00
  -.4112312E+00  -.4076521E+00  -.4040364E+00  -.4004043E+00  -.3967869E+00
  -.3932240E+00  -.3897594E+00  -.3864338E+00  -.3832739E+00  -.3802815E+00
  -.3774201E+00  -.3746046E+00  -.3716941E+00  -.3684929E+00  -.3647611E+00
  -.3602407E+00  -.3546936E+00  -.3479493E+00  -.3399484E+00  -.3307602E+00
  -.3205447E+00  -.3094882E+00  -.2977481E+00  -.2854141E+00  -.2725094E+00
  -.2590226E+00  -.2449386E+00  -.2302629E+00  -.2150389E+00  -.1993474E+00
  -.1832920E+00  -.1669788E+00  -.1504981E+00  -.1339132E+00  -.1172689E+00
  -.1006066E+00  -.8397322E-01  -.6742529E-01  -.5103031E-01  -.3486462E-01
  -.1900895E-01  -.3544192E-02   .1144886E-01   .2589076E-01   .3971059E-01
   .5285769E-01   .6531522E-01   .7711254E-01   .8832906E-01   .9907649E-01
   .1094598E+00   .1195352E+00   .1292811E+00   .1386009E+00   .1473500E+00
   .1553700E+00   .1625243E+00   .1687359E+00   .1740199E+00   .1784884E+00
   .1823202E+00   .1857125E+00   .1888353E+00   .1917956E+00   .1946324E+00
   .1973377E+00   .1998762E+00   .2022009E+00   .2042688E+00   .2060534E+00
   .2075489E+00   .2087718E+00   .2097605E+00   .2105737E+00   .2112856E+00
   .2119776E+00   .2127281E+00   .2136015E+00   .2146446E+00   .2158916E+00
   .2173713E+00   .2191096E+00   .2211298E+00   .2234500E+00   .2260792E+00
   .2290125E+00   .2322285E+00   .2356877E+00   .2393330E+00   .2430899E+00
   .2468720E+00   .2505876E+00   .2541464E+00   .2574646E+00   .2604724E+00
   .2631270E+00   .2654258E+00   .2674123E+00   .2691740E+00   .2708389E+00
   .2725680E+00   .2745423E+00   .2769449E+00   .2799447E+00   .2836984E+00
   .2883576E+00   .2940610E+00   .3009159E+00   .3089717E+00   .3181922E+00
   .3284381E+00   .3394783E+00   .3510244E+00   .3627690E+00   .3744295E+00
   .3857859E+00   .3966846E+00   .4070079E+00   .4166449E+00   .4254767E+00
   .4333727E+00   .4401898E+00   .4457815E+00   .4500153E+00   .4527988E+00
   .4541043E+00   .4539763E+00   .4525119E+00   .4498308E+00   .4460462E+00
   .4412361E+00   .4354219E+00   .4285692E+00   .4206140E+00   .4114952E+00
   .4011851E+00   .3897169E+00   .3772032E+00   .3638276E+00   .3498110E+00
   .3353693E+00   .3206838E+00   .3059078E+00   .2911975E+00   .2767337E+00
   .2627278E+00   .2494167E+00   .2370462E+00   .2258477E+00   .2160212E+00
   .2077303E+00   .2010962E+00   .1961836E+00   .1929963E+00   .1914844E+00
   .1915533E+00   .1930719E+00   .1958822E+00   .1998118E+00   .2046839E+00
   .2103289E+00   .2166011E+00   .2233956E+00   .2306508E+00   .2383280E+00
   .2463863E+00   .2547680E+00   .2633908E+00   .2721474E+00   .2809130E+00
   .2895620E+00   .2979915E+00   .3061482E+00   .3140504E+00   .3217923E+00
   .3295155E+00   .3373611E+00   .3454226E+00   .3537017E+00   .3620767E+00
   .3703060E+00   .3780806E+00   .3851003E+00   .3911519E+00   .3961742E+00
   .4002760E+00   .4036993E+00   .4067667E+00   .4098243E+00   .4131802E+00
   .4170504E+00   .4215513E+00   .4267251E+00   .4325607E+00   .4390057E+00
   .4459773E+00   .4533731E+00   .4610827E+00   .4689981E+00   .4770194E+00
   .4850457E+00   .4929593E+00   .5006201E+00   .5078692E+00   .5145421E+00
   .5204898E+00   .5256072E+00   .5298554E+00   .5332612E+00   .5358960E+00
   .5378547E+00   .5392360E+00   .5401216E+00   .5405581E+00   .5405511E+00
   .5400723E+00   .5390710E+00   .5374853E+00   .5352564E+00   .5323449E+00
   .5287484E+00   .5245182E+00   .5197705E+00   .5146858E+00   .5094942E+00
   .5044487E+00   .4997911E+00   .4957111E+00   .4923162E+00   .4896402E+00
   .4876739E+00   .4863850E+00   .4857302E+00   .4856610E+00   .4861219E+00
   .4870475E+00   .4883608E+00   .4899744E+00   .4917946E+00   .4937280E+00
   .4956879E+00   .4975936E+00   .4993630E+00   .5009085E+00   .5021413E+00
   .5029811E+00   .5033684E+00   .5032731E+00   .5026911E+00   .5016369E+00
   .5001384E+00   .4982334E+00   .4959648E+00   .4933759E+00   .4905062E+00
   .4873934E+00   .4840787E+00   .4806089E+00   .4770360E+00   .4734121E+00
   .4697832E+00   .4661806E+00   .4626138E+00   .4590715E+00   .4555290E+00
   .4519557E+00   .4483243E+00   .4446209E+00   .4408547E+00   .4370683E+00
   .4333422E+00   .4297955E+00   .4265790E+00   .4238626E+00   .4218140E+00
   .4205716E+00   .4202197E+00   .4207815E+00   .4222270E+00   .4244787E+00
   .4274150E+00   .4308745E+00   .4346597E+00   .4385456E+00   .4422973E+00
   .4456975E+00   .4485743E+00   .4508135E+00   .4523463E+00   .4531323E+00
   .4531549E+00   .4524204E+00   .4509612E+00   .4488353E+00   .4461219E+00
   .4429123E+00   .4392996E+00   .4353689E+00   .4311925E+00   .4268325E+00
   .4223440E+00   .4177714E+00   .4131407E+00   .4084509E+00   .4036677E+00
   .3987270E+00   .3935464E+00   .3880379E+00   .3821227E+00   .3757493E+00
   .3689075E+00   .3616311E+00   .3539921E+00   .3460940E+00   .3380623E+00
   .3300295E+00   .3221151E+00   .3144014E+00   .3069103E+00   .2995911E+00
   .2923376E+00   .2850258E+00   .2775496E+00   .2698527E+00   .2619499E+00
   .2539226E+00   .2459010E+00   .2380452E+00   .2305238E+00   .2234939E+00
   .2170942E+00   .2114481E+00   .2066604E+00   .2028100E+00   .1999457E+00
   .1980939E+00   .1972695E+00   .1974814E+00   .1987329E+00   .2010207E+00
   .2043317E+00   .2086409E+00   .2139099E+00   .2200855E+00   .2271006E+00
   .2348754E+00   .2433186E+00   .2523231E+00   .2617589E+00   .2714733E+00
   .2813008E+00   .2910800E+00   .3006752E+00   .3099931E+00   .3189760E+00
   .3275824E+00   .3357764E+00   .3435230E+00   .3507863E+00   .3575291E+00
   .3637138E+00   .3692977E+00   .3742291E+00   .3784471E+00   .3818845E+00
   .3844745E+00   .3861586E+00   .3868908E+00   .3866341E+00   .3853550E+00
   .3830232E+00   .3796152E+00   .3751215E+00   .3695559E+00   .3629674E+00
   .3554513E+00   .3471579E+00   .3382937E+00   .3291162E+00   .3199167E+00
   .3109938E+00   .3026158E+00   .2949882E+00   .2882544E+00   .2825210E+00
   .2778717E+00   .2743691E+00   .2720489E+00   .2709111E+00   .2709138E+00
   .2719792E+00   .2740082E+00   .2768943E+00   .2805360E+00   .2848456E+00
   .2897452E+00   .2951608E+00   .3010222E+00   .3072670E+00   .3138419E+00
   .3206951E+00   .3277636E+00   .3349675E+00   .3422112E+00   .3493882E+00
   .3563915E+00   .3631219E+00   .3694868E+00   .3753951E+00   .3807611E+00
   .3855147E+00   .3896160E+00   .3930705E+00   .3959393E+00   .3983326E+00
   .4003913E+00   .4022661E+00   .4040954E+00   .4059863E+00   .4080137E+00
   .4102284E+00   .4126588E+00   .4153091E+00   .4181599E+00   .4211784E+00
   .4243348E+00   .4276185E+00   .4310508E+00   .4346913E+00   .4386322E+00
   .4429763E+00   .4478107E+00   .4531906E+00   .4591421E+00   .4656726E+00
   .4727769E+00   .4804406E+00   .4886436E+00   .4973614E+00   .5065638E+00
   .5162103E+00   .5262480E+00   .5366112E+00   .5472247E+00   .5580096E+00
   .5688934E+00   .5798191E+00   .5907505E+00   .6016674E+00   .6125603E+00
   .6234269E+00   .6342713E+00   .6451024E+00   .6559322E+00   .6667730E+00
   .6776330E+00   .6885092E+00   .6993791E+00   .7101931E+00   .7208692E+00
   .7312915E+00   .7413134E+00   .7507662E+00   .7594709E+00   .7672500E+00
   .7739435E+00   .7794328E+00   .7836662E+00   .7866682E+00   .7885270E+00
   .7893719E+00   .7893509E+00   .7886063E+00   .7872484E+00   .7853361E+00
   .7828803E+00   .7798613E+00   .7762428E+00   .7719840E+00   .7670529E+00
   .7614398E+00   .7551690E+00   .7483063E+00   .7409611E+00   .7332812E+00
   .7254401E+00   .7176149E+00   .7099574E+00   .7025603E+00   .6954297E+00
   .6884835E+00   .6815675E+00   .6744731E+00   .6669613E+00   .6587954E+00
   .6497760E+00   .6397664E+00   .6287047E+00   .6166158E+00   .6036220E+00
   .5899378E+00   .5758412E+00   .5616307E+00   .5475778E+00   .5338847E+00
   .5206682E+00   .5079842E+00   .4958626E+00   .4843298E+00   .4734240E+00
   .4632054E+00   .4537591E+00   .4451928E+00   .4376255E+00   .4311687E+00
   .4259002E+00   .4218360E+00   .4189089E+00   .4169726E+00   .4158271E+00
   .4152491E+00   .4150207E+00   .4149430E+00   .4148362E+00   .4145435E+00
   .4139430E+00   .4129539E+00   .4115268E+00   .4096270E+00   .4072279E+00
   .4043102E+00   .4008639E+00   .3968927E+00   .3924169E+00   .3874766E+00
   .3821347E+00   .3764765E+00   .3706079E+00   .3646483E+00   .3587188E+00
   .3529230E+00   .3473288E+00   .3419573E+00   .3367782E+00   .3317047E+00
   .3265966E+00   .3212798E+00   .3155816E+00   .3093716E+00   .3026006E+00
   .2953227E+00   .2876820E+00   .2798799E+00   .2721423E+00   .2646845E+00
   .2576823E+00   .2512705E+00   .2455620E+00   .2406577E+00   .2366465E+00
   .2335978E+00   .2315496E+00   .2304975E+00   .2303950E+00   .2311629E+00
   .2326946E+00   .2348554E+00   .2374741E+00   .2403401E+00   .2432104E+00
   .2458280E+00   .2479437E+00   .2493304E+00   .2497956E+00   .2491997E+00
   .2474614E+00   .2445457E+00   .2404537E+00   .2352213E+00   .2289192E+00
   .2216549E+00   .2135722E+00   .2048472E+00   .1956767E+00   .1862584E+00
   .1767647E+00   .1673192E+00   .1579925E+00   .1488209E+00   .1398241E+00
   .1310152E+00   .1224060E+00   .1140098E+00   .1058425E+00   .9792091E-01
   .9026205E-01   .8288380E-01   .7580715E-01   .6905663E-01   .6265979E-01
   .5664606E-01   .5104558E-01   .4588952E-01   .4121232E-01   .3705327E-01
   .3345512E-01   .3046007E-01   .2810349E-01   .2640617E-01   .2536772E-01
   .2496576E-01   .2516185E-01   .2590962E-01   .2716299E-01   .2888439E-01
   .3105002E-01   .3364863E-01   .3667743E-01   .4013990E-01   .4404457E-01
   .4840394E-01   .5323339E-01   .5854998E-01   .6437132E-01   .7071508E-01
   .7759975E-01   .8504526E-01   .9307242E-01   .1017011E+00   .1109474E+00
   .1208210E+00   .1313239E+00   .1424528E+00   .1542012E+00   .1665615E+00
   .1795245E+00   .1930802E+00   .2072159E+00   .2219144E+00   .2371473E+00
   .2528645E+00   .2689820E+00   .2853754E+00   .3018799E+00   .3182975E+00
   .3344138E+00   .3500230E+00   .3649561E+00   .3790982E+00   .3923780E+00
   .4047480E+00   .4161741E+00   .4266325E+00   .4361089E+00   .4445957E+00
   .4520914E+00   .4586015E+00   .4641421E+00   .4687436E+00   .4724546E+00
   .4753432E+00   .4774956E+00   .4790101E+00   .4799873E+00   .4805191E+00
   .4806823E+00   .4805419E+00   .4801542E+00   .4795645E+00   .4788031E+00
   .4778818E+00   .4767974E+00   .4755430E+00   .4741200E+00   .4725480E+00
   .4708738E+00   .4691765E+00   .4675693E+00   .4661937E+00   .4652075E+00
   .4647652E+00   .4649934E+00   .4659694E+00   .4677179E+00   .4702224E+00
   .4734345E+00   .4772805E+00   .4816682E+00   .4864947E+00   .4916529E+00
   .4970298E+00   .5024967E+00   .5079056E+00   .5130941E+00   .5179015E+00
   .5221919E+00   .5258823E+00   .5289661E+00   .5315123E+00   .5336388E+00
   .5354780E+00   .5371458E+00   .5387157E+00   .5402128E+00   .5416221E+00
   .5428966E+00   .5439640E+00   .5447342E+00   .5451102E+00   .5449992E+00
   .5443215E+00   .5430061E+00   .5409814E+00   .5381725E+00   .5345041E+00
   .5299089E+00   .5243390E+00   .5177799E+00   .5102606E+00   .5018495E+00
   .4926388E+00   .4827260E+00   .4721950E+00   .4610985E+00   .4494487E+00
   .4372260E+00   .4243976E+00   .4109323E+00   .3968145E+00   .3820549E+00
   .3666948E+00   .3508011E+00   .3344576E+00   .3177536E+00   .3007709E+00
   .2835710E+00   .2661928E+00   .2486628E+00   .2310100E+00   .2132757E+00
   .1955203E+00   .1778263E+00   .1602959E+00   .1430437E+00   .1261835E+00
   .1098129E+00   .9400203E-01   .7879705E-01   .6422767E-01   .5030924E-01
   .3704155E-01   .2440691E-01   .1236892E-01   .8737496E-03  -.1014474E-01
  -.2075672E-01  -.3102560E-01  -.4099551E-01  -.5067977E-01  -.6005649E-01
  -.6907515E-01  -.7766799E-01  -.8576164E-01  -.9328996E-01  -.1002073E+00
  -.1064982E+00  -.1121745E+00  -.1172626E+00  -.1217907E+00  -.1257759E+00
  -.1292134E+00  -.1320684E+00  -.1342757E+00  -.1357441E+00  -.1363666E+00
  -.1360354E+00  -.1346610E+00  -.1321919E+00  -.1286243E+00  -.1240062E+00
  -.1184411E+00  -.1120889E+00  -.1051567E+00  -.9788059E-01  -.9049807E-01
  -.8321308E-01  -.7616278E-01  -.6940593E-01  -.6294366E-01  -.5674970E-01
  -.5079242E-01  -.4505220E-01  -.3953509E-01  -.3427787E-01  -.2933579E-01
  -.2475932E-01  -.2057220E-01  -.1675606E-01  -.1325175E-01  -.9972722E-02
  -.6819470E-02  -.3695147E-02  -.5183636E-03   .2769885E-02   .6199345E-02
   .9760444E-02   .1339547E-01   .1699768E-01   .2042416E-01   .2351878E-01
   .2613906E-01   .2818532E-01   .2962470E-01   .3049215E-01   .3085950E-01
   .3079429E-01   .3032802E-01   .2944178E-01   .2807937E-01   .2617512E-01
   .2367938E-01   .2057847E-01   .1690032E-01   .1270760E-01   .8088724E-02
   .3147184E-02  -.2012129E-02  -.7296220E-02  -.1262811E-01  -.1794148E-01
  -.2317618E-01  -.2827820E-01  -.3319955E-01  -.3789238E-01  -.4230148E-01
  -.4636224E-01  -.5000394E-01  -.5315711E-01  -.5576433E-01  -.5779073E-01
  -.5922679E-01  -.6008282E-01  -.6038252E-01  -.6015849E-01  -.5944905E-01
  -.5829803E-01  -.5675832E-01  -.5489461E-01  -.5278187E-01  -.5049964E-01
  -.4812251E-01  -.4570759E-01  -.4328227E-01  -.4083999E-01  -.3834785E-01
  -.3575864E-01  -.3302095E-01  -.3008769E-01  -.2691998E-01  -.2348465E-01
  -.1975072E-01  -.1568903E-01  -.1127403E-01  -.6486838E-02  -.1318343E-02
   .4230525E-02   .1014998E-01   .1642166E-01   .2301902E-01   .2990877E-01
   .3705374E-01   .4441764E-01   .5197125E-01   .5969881E-01   .6760142E-01
   .7569694E-01   .8401868E-01   .9261343E-01   .1015375E+00   .1108502E+00
   .1206045E+00   .1308373E+00   .1415630E+00   .1527713E+00   .1644254E+00
   .1764586E+00   .1887734E+00   .2012425E+00   .2137131E+00   .2260107E+00
   .2379394E+00   .2492859E+00   .2598360E+00   .2694000E+00   .2778376E+00
   .2850615E+00   .2910329E+00   .2957643E+00   .2993260E+00   .3018443E+00
   .3034802E+00   .3043952E+00   .3047173E+00   .3045152E+00   .3037979E+00
   .3025348E+00   .3006748E+00   .2981625E+00   .2949544E+00   .2910313E+00
   .2864019E+00   .2810993E+00   .2751782E+00   .2687097E+00   .2617752E+00
   .2544604E+00   .2468561E+00   .2390604E+00   .2311753E+00   .2232980E+00
   .2155083E+00   .2078582E+00   .2003724E+00   .1930559E+00   .1859003E+00
   .1788855E+00   .1719810E+00   .1651469E+00   .1583352E+00   .1514915E+00
   .1445550E+00   .1374554E+00   .1301107E+00   .1224308E+00   .1143270E+00
   .1057256E+00   .9658255E-01   .8689219E-01   .7668506E-01   .6602171E-01
   .5498652E-01   .4367917E-01   .3148794E-01   .1850306E-01   .5503057E-02
  -.7478815E-02  -.2043545E-01  -.3337938E-01  -.4633829E-01  -.5935031E-01
  -.7245787E-01  -.8569976E-01  -.9910178E-01  -.1126672E+00  -.1263698E+00
  -.1401502E+00  -.1539126E+00  -.1675231E+00  -.1808098E+00  -.1935690E+00
  -.2055805E+00  -.2166315E+00  -.2265427E+00  -.2351824E+00  -.2424604E+00
  -.2483198E+00  -.2527389E+00  -.2557378E+00  -.2573809E+00  -.2577737E+00
  -.2570543E+00  -.2553829E+00  -.2529277E+00  -.2498518E+00  -.2463116E+00
  -.2424573E+00  -.2384238E+00  -.2343131E+00  -.2301808E+00  -.2260407E+00
  -.2218792E+00  -.2176657E+00  -.2133602E+00  -.2089225E+00  -.2043232E+00
  -.1995561E+00  -.1946506E+00  -.1896837E+00  -.1847878E+00  -.1801530E+00
  -.1760198E+00  -.1726611E+00  -.1703522E+00  -.1693309E+00  -.1697589E+00
  -.1717076E+00  -.1751696E+00  -.1800733E+00  -.1862925E+00  -.1936574E+00
  -.2019718E+00  -.2110364E+00  -.2206774E+00  -.2307769E+00  -.2412937E+00
  -.2522506E+00  -.2637039E+00  -.2757165E+00  -.2883342E+00  -.3015637E+00
  -.3153576E+00  -.3296105E+00  -.3441629E+00  -.3588116E+00  -.3733261E+00
  -.3874729E+00  -.4010359E+00  -.4138166E+00  -.4256261E+00  -.4362927E+00
  -.4456799E+00  -.4537067E+00  -.4603550E+00  -.4656585E+00  -.4696850E+00
  -.4725243E+00  -.4742775E+00  -.4750438E+00  -.4749099E+00  -.4739461E+00
  -.4722123E+00  -.4697660E+00  -.4666629E+00  -.4629545E+00  -.4586829E+00
  -.4538756E+00  -.4485462E+00  -.4426997E+00  -.4363367E+00  -.4294569E+00
  -.4220625E+00  -.4141621E+00  -.4057767E+00  -.3969478E+00  -.3877458E+00
  -.3782750E+00  -.3686726E+00  -.3591004E+00  -.3497286E+00  -.3407115E+00
  -.3321578E+00  -.3241017E+00  -.3164902E+00  -.3091948E+00  -.3020351E+00
  -.2948048E+00  -.2873048E+00  -.2793799E+00  -.2709542E+00  -.2620428E+00
  -.2527332E+00  -.2431537E+00  -.2334475E+00  -.2237498E+00  -.2141780E+00
  -.2048378E+00  -.1958320E+00  -.1872615E+00  -.1792204E+00  -.1717872E+00
  -.1650173E+00  -.1589433E+00  -.1535857E+00  -.1489609E+00  -.1450834E+00
  -.1419640E+00  -.1396057E+00  -.1379983E+00  -.1371121E+00  -.1368943E+00
  -.1372680E+00  -.1381348E+00  -.1393824E+00  -.1408973E+00  -.1425823E+00
  -.1443756E+00  -.1462644E+00  -.1482799E+00  -.1504788E+00  -.1529287E+00
  -.1556933E+00  -.1588185E+00  -.1623248E+00  -.1662085E+00  -.1704464E+00
  -.1749989E+00  -.1798137E+00  -.1848305E+00  -.1899879E+00  -.1952301E+00
  -.2005126E+00  -.2058015E+00  -.2110667E+00  -.2162747E+00  -.2213862E+00
  -.2263559E+00  -.2311352E+00  -.2356775E+00  -.2399456E+00  -.2439167E+00
  -.2475807E+00  -.2509342E+00  -.2539770E+00  -.2567102E+00  -.2591351E+00
  -.2612526E+00  -.2630622E+00  -.2645629E+00  -.2657534E+00  -.2666331E+00
  -.2672034E+00  -.2674692E+00  -.2674397E+00  -.2671294E+00  -.2665584E+00
  -.2657518E+00  -.2647380E+00  -.2635462E+00  -.2622025E+00  -.2607268E+00
  -.2591317E+00  -.2574236E+00  -.2556048E+00  -.2536739E+00  -.2516268E+00
  -.2494576E+00  -.2471604E+00  -.2447304E+00  -.2421673E+00  -.2394773E+00
  -.2366762E+00  -.2337918E+00  -.2308648E+00  -.2279480E+00  -.2251026E+00
  -.2223933E+00  -.2198792E+00  -.2176052E+00  -.2155961E+00  -.2138600E+00
  -.2123934E+00  -.2111854E+00  -.2102194E+00  -.2094757E+00  -.2089338E+00
  -.2085745E+00  -.2083816E+00  -.2083429E+00  -.2084514E+00  -.2087080E+00
  -.2091228E+00  -.2097173E+00  -.2105241E+00  -.2115861E+00  -.2129531E+00
  -.2146759E+00  -.2167980E+00  -.2193429E+00  -.2223014E+00  -.2256203E+00
  -.2291981E+00  -.2328950E+00  -.2365516E+00  -.2400079E+00  -.2431191E+00
  -.2457541E+00  -.2477838E+00  -.2490784E+00  -.2495150E+00  -.2489924E+00
  -.2474481E+00  -.2448679E+00  -.2412768E+00  -.2367230E+00  -.2312695E+00
  -.2249898E+00  -.2179706E+00  -.2103158E+00  -.2021466E+00  -.1935980E+00
  -.1848109E+00  -.1759257E+00  -.1670838E+00  -.1584369E+00  -.1501501E+00
  -.1423935E+00  -.1353278E+00  -.1290930E+00  -.1237945E+00  -.1194833E+00
  -.1161381E+00  -.1136667E+00  -.1119327E+00  -.1107934E+00  -.1101307E+00
  -.1098723E+00  -.1099861E+00  -.1104612E+00  -.1112939E+00  -.1124779E+00
  -.1139962E+00  -.1158157E+00  -.1178878E+00  -.1201552E+00  -.1225616E+00
  -.1250621E+00  -.1276311E+00  -.1302608E+00  -.1329526E+00  -.1357089E+00
  -.1385271E+00  -.1413940E+00  -.1442834E+00  -.1471575E+00  -.1499723E+00
  -.1526834E+00  -.1552538E+00  -.1576605E+00  -.1598978E+00  -.1619733E+00
  -.1639034E+00  -.1657089E+00  -.1674114E+00  -.1690288E+00  -.1705735E+00
  -.1720516E+00  -.1734657E+00  -.1748166E+00  -.1761047E+00  -.1773309E+00
  -.1784969E+00  -.1796054E+00  -.1806590E+00  -.1816590E+00  -.1826032E+00
  -.1834829E+00  -.1842821E+00  -.1849753E+00  -.1855288E+00  -.1859026E+00
  -.1860539E+00  -.1859438E+00  -.1855434E+00  -.1848389E+00  -.1838295E+00
  -.1825217E+00  -.1809261E+00  -.1790560E+00  -.1769261E+00  -.1745518E+00
  -.1719491E+00  -.1691341E+00  -.1661241E+00  -.1629379E+00  -.1595978E+00
  -.1561311E+00  -.1525696E+00  -.1489484E+00  -.1453035E+00  -.1416670E+00
  -.1380639E+00  -.1345093E+00  -.1310105E+00  -.1275705E+00  -.1241902E+00
  -.1208692E+00  -.1176074E+00  -.1144051E+00  -.1112638E+00  -.1081863E+00
  -.1051768E+00  -.1022406E+00  -.9938405E-01  -.9661373E-01  -.9393652E-01
  -.9135863E-01  -.8888473E-01  -.8651749E-01  -.8425794E-01  -.8210674E-01
  -.8006486E-01  -.7813396E-01  -.7631627E-01  -.7461421E-01  -.7302974E-01
  -.7156350E-01  -.7021431E-01  -.6897964E-01  -.6785657E-01  -.6684238E-01
  -.6593479E-01  -.6513219E-01  -.6443354E-01  -.6383817E-01  -.6334547E-01
  -.6295460E-01  -.6266473E-01  -.6247532E-01  -.6238600E-01  -.6239599E-01
  -.6250334E-01  -.6270410E-01  -.6299180E-01  -.6335756E-01  -.6379032E-01
  -.6427723E-01  -.6480424E-01  -.6535704E-01  -.6592227E-01  -.6648891E-01
  -.6704924E-01  -.6759851E-01  -.6813383E-01  -.6865370E-01  -.6915763E-01
  -.6964583E-01  -.7011875E-01  -.7057643E-01  -.7101772E-01  -.7143952E-01
  -.7183621E-01  -.7219933E-01  -.7251759E-01  -.7277732E-01  -.7296334E-01
  -.7305984E-01  -.7305178E-01  -.7292701E-01  -.7267870E-01  -.7230701E-01
  -.7181785E-01  -.7122038E-01  -.7052549E-01  -.6974483E-01  -.6888988E-01
  -.6797145E-01  -.6699946E-01  -.6598309E-01  -.6493055E-01  -.6384892E-01
  -.6274390E-01  -.6161996E-01  -.6048096E-01  -.5933067E-01  -.5817310E-01
  -.5701256E-01  -.5585365E-01  -.5470106E-01  -.5355931E-01  -.5243256E-01
  -.5132460E-01  -.5023909E-01  -.4917965E-01  -.4814974E-01  -.4715229E-01
  -.4618928E-01  -.4526139E-01  -.4436780E-01  -.4350665E-01  -.4267554E-01
  -.4187198E-01  -.4109369E-01  -.4033899E-01  -.3960699E-01  -.3889777E-01
  -.3821220E-01  -.3755169E-01  -.3691776E-01  -.3631165E-01  -.3573404E-01
  -.3518479E-01  -.3466319E-01  -.3416820E-01  -.3369853E-01  -.3325264E-01
  -.3282876E-01  -.3242495E-01  -.3203930E-01  -.3167033E-01  -.3131705E-01
  -.3097897E-01  -.3065595E-01  -.3034789E-01  -.3005435E-01  -.2977412E-01
  -.2950493E-01  -.2924331E-01  -.2898501E-01  -.2872566E-01  -.2846122E-01
  -.2818828E-01  -.2790411E-01  -.2760661E-01  -.2729447E-01  -.2696715E-01
  -.2662477E-01  -.2626785E-01  -.2589709E-01  -.2551338E-01  -.2511767E-01
  -.2471093E-01  -.2429408E-01  -.2386797E-01  -.2343336E-01  -.2299094E-01
  -.2254133E-01  -.2208507E-01  -.2162264E-01  -.2115451E-01  -.2068112E-01
  -.2020300E-01  -.1972078E-01  -.1923526E-01  -.1874740E-01  -.1825826E-01
  -.1776888E-01  -.1728021E-01  -.1679305E-01  -.1630807E-01  -.1582577E-01
  -.1534655E-01  -.1487076E-01  -.1439872E-01  -.1393070E-01  -.1346698E-01
  -.1300783E-01  -.1255349E-01  -.1210418E-01  -.1166009E-01  -.1122136E-01
  -.1078809E-01  -.1036033E-01  -.9938081E-02  -.9521342E-02  -.9110098E-02
  -.8704327E-02  -.8304011E-02  -.7909131E-02  -.7519671E-02  -.7135615E-02
  -.6756952E-02  -.6383672E-02  -.6015766E-02  -.5653231E-02  -.5296062E-02
  -.4944262E-02  -.4597830E-02  -.4256771E-02  -.3921090E-02  -.3590792E-02
  -.3265884E-02  -.2946373E-02  -.2632266E-02  -.2323570E-02  -.2020290E-02
  -.1722433E-02  -.1430004E-02  -.1143007E-02  -.8614446E-03  -.5853191E-03
  -.3146311E-03  -.4937964E-04   .2104378E-03   .4648255E-03   .7137894E-03
