PEER NGA STRONG MOTION DATABASE RECORD
San Fernando, 2/9/1971, Buena Vista - Taft, 180
VELOCITY TIME SERIES IN UNITS OF CM/S
NPTS=   5330, DT=   .0050 SEC,                                             
   .0000000E+00   .9766972E-02   .1955064E-01   .2936427E-01   .3921886E-01
   .4912089E-01   .5907041E-01   .6906003E-01   .7907560E-01   .8909860E-01
   .9910878E-01   .1090855E+00   .1190094E+00   .1288640E+00   .1386393E+00
   .1483346E+00   .1579616E+00   .1675463E+00   .1771302E+00   .1867693E+00
   .1965297E+00   .2064807E+00   .2166917E+00   .2272327E+00   .2381735E+00
   .2495800E+00   .2615078E+00   .2739964E+00   .2870685E+00   .3007348E+00
   .3149998E+00   .3298644E+00   .3453272E+00   .3613846E+00   .3780281E+00
   .3952374E+00   .4129737E+00   .4311743E+00   .4497475E+00   .4685650E+00
   .4874566E+00   .5062152E+00   .5246081E+00   .5423978E+00   .5593686E+00
   .5753424E+00   .5901701E+00   .6037103E+00   .6158148E+00   .6263213E+00
   .6350576E+00   .6418580E+00   .6465873E+00   .6491695E+00   .6496134E+00
   .6480319E+00   .6446448E+00   .6397527E+00   .6336943E+00   .6268223E+00
   .6194980E+00   .6120890E+00   .6049701E+00   .5985189E+00   .5930984E+00
   .5890436E+00   .5866440E+00   .5861218E+00   .5876174E+00   .5911766E+00
   .5967308E+00   .6040830E+00   .6129138E+00   .6228100E+00   .6332955E+00
   .6438425E+00   .6538870E+00   .6628795E+00   .6703481E+00   .6759160E+00
   .6792890E+00   .6802683E+00   .6787707E+00   .6748457E+00   .6686919E+00
   .6606674E+00   .6512856E+00   .6411807E+00   .6310398E+00   .6215117E+00
   .6131062E+00   .6061217E+00   .6006682E+00   .5967526E+00   .5943490E+00
   .5934385E+00   .5940215E+00   .5961191E+00   .5997654E+00   .6049890E+00
   .6117888E+00   .6201131E+00   .6298616E+00   .6409182E+00   .6531957E+00
   .6666503E+00   .6812604E+00   .6969892E+00   .7137431E+00   .7313265E+00
   .7493959E+00   .7674308E+00   .7847443E+00   .8005428E+00   .8140046E+00
   .8243500E+00   .8309277E+00   .8333097E+00   .8313350E+00   .8251169E+00
   .8150409E+00   .8017212E+00   .7858986E+00   .7683034E+00   .7495425E+00
   .7300731E+00   .7102272E+00   .6902209E+00   .6701699E+00   .6501293E+00
   .6301367E+00   .6102424E+00   .5905259E+00   .5711001E+00   .5521030E+00
   .5336787E+00   .5159519E+00   .4990176E+00   .4829437E+00   .4677680E+00
   .4534791E+00   .4399647E+00   .4269523E+00   .4139978E+00   .4005375E+00
   .3859850E+00   .3698462E+00   .3517986E+00   .3317300E+00   .3097653E+00
   .2862525E+00   .2617111E+00   .2367890E+00   .2122265E+00   .1888039E+00
   .1672880E+00   .1483974E+00   .1327785E+00   .1210064E+00   .1135976E+00
   .1109989E+00   .1135734E+00   .1215780E+00   .1351203E+00   .1541133E+00
   .1782354E+00   .2069091E+00   .2393292E+00   .2745227E+00   .3113771E+00
   .3486598E+00   .3850951E+00   .4194773E+00   .4507180E+00   .4778375E+00
   .5000027E+00   .5165916E+00   .5271908E+00   .5315486E+00   .5295666E+00
   .5213120E+00   .5070179E+00   .4870711E+00   .4620025E+00   .4324794E+00
   .3992840E+00   .3632691E+00   .3252899E+00   .2860988E+00   .2462400E+00
   .2060521E+00   .1657521E+00   .1254953E+00   .8541610E-01   .4565697E-01
   .6377663E-02  -.3225572E-01  -.7010076E-01  -.1070710E+00  -.1431365E+00
  -.1782999E+00  -.2125774E+00  -.2459933E+00  -.2785843E+00  -.3104063E+00
  -.3415339E+00  -.3720560E+00  -.4020700E+00  -.4316731E+00  -.4609445E+00
  -.4899147E+00  -.5185251E+00  -.5465816E+00  -.5737156E+00  -.5993675E+00
  -.6228098E+00  -.6432160E+00  -.6597628E+00  -.6717123E+00  -.6784344E+00
  -.6794208E+00  -.6743229E+00  -.6629679E+00  -.6453557E+00  -.6216666E+00
  -.5922637E+00  -.5576808E+00  -.5185948E+00  -.4757890E+00  -.4301401E+00
  -.3826272E+00  -.3343087E+00  -.2862461E+00  -.2394183E+00  -.1946889E+00
  -.1528295E+00  -.1145246E+00  -.8033916E-01  -.5070968E-01  -.2595597E-01
  -.6269717E-02   .8315441E-02   .1794971E-01   .2297865E-01   .2392175E-01
   .2139864E-01   .1602007E-01   .8296463E-02  -.1403825E-02  -.1288114E-01
  -.2614021E-01  -.4140886E-01  -.5912229E-01  -.7985468E-01  -.1041839E+00
  -.1325419E+00  -.1651506E+00  -.2020200E+00  -.2429249E+00  -.2873882E+00
  -.3347292E+00  -.3841819E+00  -.4350112E+00  -.4865355E+00  -.5380881E+00
  -.5890144E+00  -.6386855E+00  -.6865140E+00  -.7319741E+00  -.7745977E+00
  -.8139357E+00  -.8495342E+00  -.8809471E+00  -.9077652E+00  -.9296309E+00
  -.9462567E+00  -.9574594E+00  -.9631806E+00  -.9634858E+00  -.9585610E+00
  -.9487097E+00  -.9343408E+00  -.9159415E+00  -.8940460E+00  -.8691956E+00
  -.8418826E+00  -.8125115E+00  -.7814273E+00  -.7489744E+00  -.7155287E+00
  -.6815032E+00  -.6473291E+00  -.6134099E+00  -.5800651E+00  -.5474990E+00
  -.5157818E+00  -.4848215E+00  -.4543474E+00  -.4239353E+00  -.3930856E+00
  -.3613340E+00  -.3283531E+00  -.2939959E+00  -.2583034E+00  -.2215162E+00
  -.1840787E+00  -.1466201E+00  -.1099149E+00  -.7483704E-01  -.4229595E-01
  -.1313485E-01   .1195086E-01   .3239952E-01   .4772454E-01   .5749380E-01
   .6133380E-01   .5894525E-01   .5013958E-01   .3488798E-01   .1333565E-01
  -.1425195E-01  -.4756023E-01  -.8623803E-01  -.1298721E+00  -.1779666E+00
  -.2299158E+00  -.2849795E+00  -.3422647E+00  -.4006967E+00  -.4590166E+00
  -.5158536E+00  -.5698334E+00  -.6196065E+00  -.6638202E+00  -.7011644E+00
  -.7304957E+00  -.7509614E+00  -.7620647E+00  -.7637098E+00  -.7562271E+00
  -.7403036E+00  -.7168370E+00  -.6868003E+00  -.6511996E+00  -.6111046E+00
  -.5676574E+00  -.5220670E+00  -.4756348E+00  -.4297571E+00  -.3858310E+00
  -.3451137E+00  -.3086621E+00  -.2773476E+00  -.2518376E+00  -.2325705E+00
  -.2197429E+00  -.2132837E+00  -.2128405E+00  -.2177956E+00  -.2273111E+00
  -.2404109E+00  -.2561022E+00  -.2735018E+00  -.2918674E+00  -.3105684E+00
  -.3290924E+00  -.3470577E+00  -.3641814E+00  -.3802332E+00  -.3950124E+00
  -.4083338E+00  -.4200210E+00  -.4299172E+00  -.4379049E+00  -.4439173E+00
  -.4479457E+00  -.4500518E+00  -.4503787E+00  -.4491560E+00  -.4466911E+00
  -.4433430E+00  -.4394815E+00  -.4354576E+00  -.4315876E+00  -.4281272E+00
  -.4252264E+00  -.4228827E+00  -.4209272E+00  -.4190482E+00  -.4168375E+00
  -.4138565E+00  -.4097115E+00  -.4040953E+00  -.3967982E+00  -.3877209E+00
  -.3768826E+00  -.3644034E+00  -.3504719E+00  -.3353244E+00  -.3192487E+00
  -.3025951E+00  -.2857688E+00  -.2692029E+00  -.2533159E+00  -.2384792E+00
  -.2250125E+00  -.2131837E+00  -.2032036E+00  -.1952493E+00  -.1895041E+00
  -.1861788E+00  -.1855096E+00  -.1877362E+00  -.1930600E+00  -.2015836E+00
  -.2132389E+00  -.2277358E+00  -.2445832E+00  -.2631631E+00  -.2827848E+00
  -.3027328E+00  -.3223269E+00  -.3409708E+00  -.3581970E+00  -.3736875E+00
  -.3872406E+00  -.3987174E+00  -.4080053E+00  -.4149962E+00  -.4195764E+00
  -.4216332E+00  -.4210793E+00  -.4178905E+00  -.4121382E+00  -.4039955E+00
  -.3937213E+00  -.3816433E+00  -.3681593E+00  -.3537470E+00  -.3389491E+00
  -.3243271E+00  -.3104026E+00  -.2976310E+00  -.2864055E+00  -.2770519E+00
  -.2698316E+00  -.2649529E+00  -.2625692E+00  -.2627679E+00  -.2655602E+00
  -.2708683E+00  -.2785110E+00  -.2882006E+00  -.2995544E+00  -.3121137E+00
  -.3253503E+00  -.3386500E+00  -.3513093E+00  -.3625771E+00  -.3717406E+00
  -.3782227E+00  -.3816156E+00  -.3816530E+00  -.3781883E+00  -.3711847E+00
  -.3606895E+00  -.3467956E+00  -.3296064E+00  -.3092200E+00  -.2857497E+00
  -.2593694E+00  -.2303582E+00  -.1991343E+00  -.1662808E+00  -.1325580E+00
  -.9887924E-01  -.6622406E-01  -.3549413E-01  -.7373642E-02   .1767500E-01
   .3931834E-01   .5729155E-01   .7136724E-01   .8134640E-01   .8707832E-01
   .8850813E-01   .8574337E-01   .7911466E-01   .6918604E-01   .5669740E-01
   .4248155E-01   .2739981E-01   .1226692E-01  -.2256914E-02  -.1573354E-01
  -.2791839E-01  -.3869050E-01  -.4799595E-01  -.5579954E-01  -.6204319E-01
  -.6661627E-01  -.6934322E-01  -.6999286E-01  -.6830979E-01  -.6406044E-01
  -.5707184E-01  -.4724600E-01  -.3456277E-01  -.1908413E-01  -.9522844E-03
   .1962671E-01   .4241183E-01   .6715736E-01   .9362576E-01   .1215712E+00
   .1507131E+00   .1807149E+00   .2111553E+00   .2415084E+00   .2711606E+00
   .2994629E+00   .3257927E+00   .3495840E+00   .3703523E+00   .3877466E+00
   .4015853E+00   .4118590E+00   .4187222E+00   .4224839E+00   .4235848E+00
   .4225542E+00   .4199387E+00   .4162128E+00   .4117064E+00   .4066026E+00
   .4009775E+00   .3948307E+00   .3881104E+00   .3807366E+00   .3726208E+00
   .3636842E+00   .3538723E+00   .3431657E+00   .3315837E+00   .3191721E+00
   .3059721E+00   .2919791E+00   .2771071E+00   .2611685E+00   .2438795E+00
   .2248953E+00   .2038720E+00   .1805471E+00   .1548095E+00   .1267428E+00
   .9665232E-01   .6507245E-01   .3273348E-01   .4778091E-03  -.3087084E-01
  -.6064985E-01  -.8841986E-01  -.1139181E+00  -.1369841E+00  -.1575015E+00
  -.1753576E+00  -.1904218E+00  -.2025488E+00  -.2116027E+00  -.2174982E+00
  -.2202326E+00  -.2198906E+00  -.2166319E+00  -.2106772E+00  -.2023009E+00
  -.1918252E+00  -.1795986E+00  -.1659651E+00  -.1512500E+00  -.1357787E+00
  -.1199016E+00  -.1039955E+00  -.8844961E-01  -.7365605E-01  -.5999271E-01
  -.4777826E-01  -.3722271E-01  -.2842663E-01  -.2141523E-01  -.1615979E-01
  -.1258269E-01  -.1053567E-01  -.9762073E-02  -.9871191E-02  -.1033607E-01
  -.1052774E-01  -.9793346E-02  -.7553191E-02  -.3348044E-02   .3180844E-02
   .1231849E-01   .2428331E-01   .3923386E-01   .5727917E-01   .7847849E-01
   .1028278E+00   .1302451E+00   .1605594E+00   .1935013E+00   .2286969E+00
   .2656607E+00   .3037871E+00   .3423633E+00   .3806144E+00   .4177487E+00
   .4529962E+00   .4856722E+00   .5152441E+00   .5413452E+00   .5637621E+00
   .5824423E+00   .5975030E+00   .6092097E+00   .6179327E+00   .6240953E+00
   .6281264E+00   .6304174E+00   .6312776E+00   .6309115E+00   .6294593E+00
   .6270708E+00   .6239549E+00   .6203838E+00   .6166602E+00   .6130787E+00
   .6099026E+00   .6073412E+00   .6055085E+00   .6043854E+00   .6038197E+00
   .6035612E+00   .6033027E+00   .6027098E+00   .6014408E+00   .5991689E+00
   .5956059E+00   .5905261E+00   .5837953E+00   .5753754E+00   .5653054E+00
   .5536800E+00   .5406306E+00   .5263096E+00   .5108850E+00   .4945370E+00
   .4774483E+00   .4597922E+00   .4417346E+00   .4234449E+00   .4050990E+00
   .3868739E+00   .3689449E+00   .3514818E+00   .3346332E+00   .3185081E+00
   .3031786E+00   .2886961E+00   .2751031E+00   .2624413E+00   .2507587E+00
   .2401167E+00   .2305952E+00   .2222915E+00   .2153105E+00   .2097478E+00
   .2056724E+00   .2031217E+00   .2021058E+00   .2026127E+00   .2046123E+00
   .2080648E+00   .2129277E+00   .2191651E+00   .2267555E+00   .2356994E+00
   .2460229E+00   .2577736E+00   .2710025E+00   .2857341E+00   .3019315E+00
   .3194628E+00   .3380764E+00   .3573977E+00   .3769554E+00   .3962390E+00
   .4147789E+00   .4322102E+00   .4482902E+00   .4629022E+00   .4760732E+00
   .4879940E+00   .4990280E+00   .5096980E+00   .5206404E+00   .5325256E+00
   .5459540E+00   .5613809E+00   .5791060E+00   .5992840E+00   .6219145E+00
   .6468229E+00   .6736497E+00   .7018565E+00   .7307560E+00   .7595656E+00
   .7874627E+00   .8136044E+00   .8371507E+00   .8573396E+00   .8735801E+00
   .8854743E+00   .8927739E+00   .8953468E+00   .8931620E+00   .8862807E+00
   .8748349E+00   .8589752E+00   .8388051E+00   .8143442E+00   .7855663E+00
   .7525014E+00   .7153387E+00   .6744811E+00   .6305339E+00   .5842445E+00
   .5364210E+00   .4878803E+00   .4394186E+00   .3917568E+00   .3454910E+00
   .3011117E+00   .2590536E+00   .2197098E+00   .1834173E+00   .1504356E+00
   .1209604E+00   .9515789E-01   .7317707E-01   .5514523E-01   .4116184E-01
   .3128975E-01   .2553649E-01   .2382762E-01   .2598090E-01   .3169432E-01
   .4055570E-01   .5206668E-01   .6565772E-01   .8066654E-01   .9631442E-01
   .1117255E+00   .1259704E+00   .1381185E+00   .1473283E+00   .1529614E+00
   .1546293E+00   .1521884E+00   .1457601E+00   .1357526E+00   .1228528E+00
   .1079676E+00   .9210823E-01   .7622590E-01   .6104564E-01   .4701832E-01
   .3438785E-01   .2326343E-01   .1367578E-01   .5623976E-02  -.8956455E-03
  -.5883501E-02  -.9349524E-02  -.1133815E-01  -.1195674E-01  -.1139263E-01
  -.9910001E-02  -.7824306E-02  -.5453535E-02  -.3058658E-02  -.8105350E-03
   .1203704E-02   .2963957E-02   .4503967E-02   .5896840E-02   .7240714E-02
   .8652036E-02   .1026262E-01   .1221107E-01   .1462904E-01   .1762796E-01
   .2129361E-01   .2568295E-01   .3081483E-01   .3665940E-01   .4313481E-01
   .5011792E-01   .5746629E-01   .6504659E-01   .7276228E-01   .8056210E-01
   .8842884E-01   .9636462E-01   .1043760E+00   .1124604E+00   .1205936E+00
   .1287194E+00   .1367418E+00   .1445206E+00   .1518654E+00   .1585320E+00
   .1642348E+00   .1686798E+00   .1716150E+00   .1728832E+00   .1724396E+00
   .1703339E+00   .1666853E+00   .1616570E+00   .1554328E+00   .1482130E+00
   .1402338E+00   .1317853E+00   .1232153E+00   .1149178E+00   .1073163E+00
   .1008408E+00   .9588286E-01   .9274258E-01   .9161279E-01   .9259243E-01
   .9568899E-01   .1008209E+00   .1078375E+00   .1165600E+00   .1268290E+00
   .1385389E+00   .1516375E+00   .1661031E+00   .1819185E+00   .1990422E+00
   .2173777E+00   .2367526E+00   .2569147E+00   .2775522E+00   .2983271E+00
   .3188947E+00   .3389077E+00   .3580252E+00   .3759348E+00   .3923751E+00
   .4071614E+00   .4202017E+00   .4314704E+00   .4409651E+00   .4486856E+00
   .4546448E+00   .4588930E+00   .4615429E+00   .4627839E+00   .4628804E+00
   .4621478E+00   .4609096E+00   .4594450E+00   .4579576E+00   .4565782E+00
   .4553730E+00   .4543485E+00   .4534619E+00   .4526443E+00   .4518332E+00
   .4510052E+00   .4502061E+00   .4495687E+00   .4493044E+00   .4496489E+00
   .4507785E+00   .4527305E+00   .4553775E+00   .4584696E+00   .4617103E+00
   .4648275E+00   .4676005E+00   .4698418E+00   .4713767E+00   .4720254E+00
   .4715791E+00   .4697772E+00   .4663029E+00   .4608030E+00   .4529248E+00
   .4423452E+00   .4288009E+00   .4121413E+00   .3923849E+00   .3697361E+00
   .3445347E+00   .3171869E+00   .2881545E+00   .2579751E+00   .2272484E+00
   .1965962E+00   .1666155E+00   .1378333E+00   .1106577E+00   .8537174E-01
   .6218360E-01   .4128247E-01   .2286661E-01   .7136303E-02  -.5744047E-02
  -.1569954E-01  -.2279176E-01  -.2720923E-01  -.2918829E-01  -.2892883E-01
  -.2658401E-01  -.2231488E-01  -.1634867E-01  -.9023160E-02  -.8104153E-03
   .7697689E-02   .1585437E-01   .2306663E-01   .2890259E-01   .3310478E-01
   .3553408E-01   .3613223E-01   .3490117E-01   .3189045E-01   .2719092E-01
   .2093384E-01   .1329525E-01   .4507903E-02  -.5110158E-02  -.1512723E-01
  -.2499952E-01  -.3411047E-01  -.4184477E-01  -.4766681E-01  -.5115780E-01
  -.5203537E-01  -.5019070E-01  -.4570770E-01  -.3883600E-01  -.2993560E-01
  -.1942127E-01  -.7731945E-02   .4672659E-02   .1732056E-01   .2975346E-01
   .4154390E-01   .5227225E-01   .6149424E-01   .6874576E-01   .7358414E-01
   .7565273E-01   .7472963E-01   .7070727E-01   .6353252E-01   .5316275E-01
   .3954674E-01   .2265350E-01   .2543870E-02  -.2055892E-01  -.4624144E-01
  -.7394095E-01  -.1030367E+00  -.1329457E+00  -.1631573E+00  -.1932124E+00
  -.2226931E+00  -.2512210E+00  -.2784260E+00  -.3039039E+00  -.3272044E+00
  -.3478439E+00  -.3653180E+00  -.3791114E+00  -.3887351E+00  -.3937927E+00
  -.3940347E+00  -.3893948E+00  -.3800245E+00  -.3663054E+00  -.3488134E+00
  -.3282495E+00  -.3053712E+00  -.2809121E+00  -.2554822E+00  -.2295148E+00
  -.2033102E+00  -.1771159E+00  -.1511846E+00  -.1258055E+00  -.1013075E+00
  -.7803724E-01  -.5632784E-01  -.3647090E-01  -.1868168E-01  -.3060091E-02
   .1041036E-01   .2183017E-01   .3135327E-01   .3916704E-01   .4547795E-01
   .5049653E-01   .5443526E-01   .5751548E-01   .5995956E-01   .6195917E-01
   .6361655E-01   .6486971E-01   .6543265E-01   .6479561E-01   .6228875E-01
   .5718595E-01   .4883036E-01   .3671871E-01   .2052322E-01   .1060698E-03
  -.2445130E-01  -.5282378E-01  -.8444411E-01  -.1185594E+00  -.1543526E+00
  -.1911055E+00  -.2283375E+00  -.2657973E+00  -.3033434E+00  -.3408373E+00
  -.3780570E+00  -.4146479E+00  -.4501332E+00  -.4839753E+00  -.5156798E+00
  -.5449077E+00  -.5715099E+00  -.5954791E+00  -.6168872E+00  -.6358239E+00
  -.6523519E+00  -.6664969E+00  -.6782546E+00  -.6875931E+00  -.6944434E+00
  -.6986875E+00  -.7001596E+00  -.6986616E+00  -.6939966E+00  -.6860207E+00
  -.6747057E+00  -.6601925E+00  -.6427966E+00  -.6229230E+00  -.6009373E+00
  -.5771045E+00  -.5516092E+00  -.5246005E+00  -.4962319E+00  -.4667015E+00
  -.4362889E+00  -.4053780E+00  -.3744547E+00  -.3440809E+00  -.3148439E+00
  -.2872958E+00  -.2619404E+00  -.2392496E+00  -.2196566E+00  -.2035506E+00
  -.1912830E+00  -.1831571E+00  -.1793957E+00  -.1801089E+00  -.1853105E+00
  -.1949686E+00  -.2090354E+00  -.2274468E+00  -.2501046E+00  -.2768491E+00
  -.3074243E+00  -.3414468E+00  -.3783888E+00  -.4175737E+00  -.4581860E+00
  -.4993172E+00  -.5400564E+00  -.5796081E+00  -.6173838E+00  -.6529835E+00
  -.6861149E+00  -.7165432E+00  -.7440677E+00  -.7685214E+00  -.7897925E+00
  -.8078523E+00  -.8227579E+00  -.8346345E+00  -.8436614E+00  -.8500678E+00
  -.8541351E+00  -.8561931E+00  -.8565961E+00  -.8556923E+00  -.8538153E+00
  -.8512932E+00  -.8484413E+00  -.8455340E+00  -.8427687E+00  -.8402516E+00
  -.8380277E+00  -.8361283E+00  -.8346114E+00  -.8335902E+00  -.8332418E+00
  -.8337763E+00  -.8353705E+00  -.8380916E+00  -.8418391E+00  -.8463408E+00
  -.8511968E+00  -.8559493E+00  -.8601725E+00  -.8635473E+00  -.8658683E+00
  -.8670097E+00  -.8669007E+00  -.8655086E+00  -.8628285E+00  -.8588878E+00
  -.8537609E+00  -.8475868E+00  -.8405793E+00  -.8330157E+00  -.8252012E+00
  -.8174275E+00  -.8099559E+00  -.8030200E+00  -.7968232E+00  -.7915341E+00
  -.7873086E+00  -.7843425E+00  -.7829177E+00  -.7834146E+00  -.7862719E+00
  -.7918930E+00  -.8005208E+00  -.8121190E+00  -.8263430E+00  -.8426284E+00
  -.8603153E+00  -.8787153E+00  -.8971518E+00  -.9150286E+00  -.9318782E+00
  -.9473685E+00  -.9613018E+00  -.9736045E+00  -.9842916E+00  -.9934200E+00
  -.1001046E+01  -.1007192E+01  -.1011819E+01  -.1014832E+01  -.1016082E+01
  -.1015393E+01  -.1012586E+01  -.1007484E+01  -.9999086E+00  -.9896874E+00
  -.9766673E+00  -.9607434E+00  -.9418951E+00  -.9202251E+00  -.8959793E+00
  -.8695435E+00  -.8414334E+00  -.8123042E+00  -.7829732E+00  -.7544041E+00
  -.7276297E+00  -.7036218E+00  -.6831657E+00  -.6668175E+00  -.6549077E+00
  -.6475403E+00  -.6446495E+00  -.6460972E+00  -.6517254E+00  -.6613689E+00
  -.6748559E+00  -.6919986E+00  -.7125574E+00  -.7361784E+00  -.7623415E+00
  -.7903683E+00  -.8194938E+00  -.8489658E+00  -.8781059E+00  -.9063160E+00
  -.9330883E+00  -.9580318E+00  -.9808599E+00  -.1001353E+01  -.1019342E+01
  -.1034718E+01  -.1047445E+01  -.1057581E+01  -.1065264E+01  -.1070660E+01
  -.1073904E+01  -.1075067E+01  -.1074163E+01  -.1071184E+01  -.1066129E+01
  -.1059040E+01  -.1050025E+01  -.1039258E+01  -.1026978E+01  -.1013467E+01
  -.9990235E+00  -.9839578E+00  -.9685956E+00  -.9532627E+00  -.9382558E+00
  -.9238210E+00  -.9101669E+00  -.8974924E+00  -.8859960E+00  -.8758669E+00
  -.8672671E+00  -.8603204E+00  -.8551053E+00  -.8516390E+00  -.8498517E+00
  -.8495611E+00  -.8504538E+00  -.8520862E+00  -.8539116E+00  -.8553388E+00
  -.8558063E+00  -.8548198E+00  -.8519430E+00  -.8467935E+00  -.8390668E+00
  -.8285711E+00  -.8152499E+00  -.7991980E+00  -.7806747E+00  -.7600910E+00
  -.7379610E+00  -.7148246E+00  -.6911632E+00  -.6673572E+00  -.6437021E+00
  -.6204309E+00  -.5977160E+00  -.5756597E+00  -.5542825E+00  -.5335299E+00
  -.5132951E+00  -.4934419E+00  -.4738311E+00  -.4543484E+00  -.4349194E+00
  -.4155157E+00  -.3961666E+00  -.3769725E+00  -.3581125E+00  -.3398443E+00
  -.3224883E+00  -.3063934E+00  -.2918882E+00  -.2792404E+00  -.2686557E+00
  -.2602948E+00  -.2542748E+00  -.2506565E+00  -.2494243E+00  -.2504646E+00
  -.2535464E+00  -.2583110E+00  -.2642806E+00  -.2708929E+00  -.2775621E+00
  -.2837608E+00  -.2891005E+00  -.2933337E+00  -.2962430E+00  -.2975558E+00
  -.2969729E+00  -.2942162E+00  -.2890288E+00  -.2811611E+00  -.2703873E+00
  -.2565397E+00  -.2395388E+00  -.2194089E+00  -.1962925E+00  -.1704642E+00
  -.1423411E+00  -.1124961E+00  -.8165464E-01  -.5065078E-01  -.2034538E-01
   .8471486E-02   .3513446E-01   .5907095E-01   .7975338E-01   .9670752E-01
   .1095685E+00   .1181671E+00   .1226118E+00   .1232959E+00   .1208371E+00
   .1160126E+00   .1096847E+00   .1027172E+00   .9588720E-01   .8980690E-01
   .8487836E-01   .8130627E-01   .7915915E-01   .7842999E-01   .7908100E-01
   .8106618E-01   .8433461E-01   .8882608E-01   .9446297E-01   .1011428E+00
   .1087369E+00   .1170979E+00   .1260759E+00   .1355312E+00   .1453449E+00
   .1554381E+00   .1657944E+00   .1764738E+00   .1876139E+00   .1994173E+00
   .2121204E+00   .2259375E+00   .2409767E+00   .2571427E+00   .2740676E+00
   .2911366E+00   .3076123E+00   .3228020E+00   .3361978E+00   .3475084E+00
   .3566251E+00   .3635964E+00   .3685996E+00   .3719015E+00   .3738116E+00
   .3746463E+00   .3747245E+00   .3743751E+00   .3739297E+00   .3736954E+00
   .3739176E+00   .3747531E+00   .3762880E+00   .3785792E+00   .3816859E+00
   .3856897E+00   .3907004E+00   .3968421E+00   .4042279E+00   .4129366E+00
   .4230092E+00   .4344570E+00   .4472681E+00   .4614131E+00   .4768514E+00
   .4935356E+00   .5114152E+00   .5304365E+00   .5505334E+00   .5716014E+00
   .5934656E+00   .6158559E+00   .6383959E+00   .6606072E+00   .6819358E+00
   .7018098E+00   .7197046E+00   .7351623E+00   .7477643E+00   .7571091E+00
   .7628083E+00   .7644968E+00   .7618351E+00   .7545109E+00   .7422659E+00
   .7249452E+00   .7025395E+00   .6752051E+00   .6432753E+00   .6072634E+00
   .5678535E+00   .5258672E+00   .4822061E+00   .4378153E+00   .3936470E+00
   .3505878E+00   .3094144E+00   .2707996E+00   .2353319E+00   .2035454E+00
   .1759422E+00   .1529758E+00   .1350178E+00   .1223631E+00   .1152553E+00
   .1138852E+00   .1183748E+00   .1287611E+00   .1449769E+00   .1668287E+00
   .1939859E+00   .2259979E+00   .2623398E+00   .3024675E+00   .3458418E+00
   .3919152E+00   .4401188E+00   .4898599E+00   .5405199E+00   .5914469E+00
   .6419409E+00   .6912485E+00   .7385637E+00   .7830416E+00   .8238557E+00
   .8602767E+00   .8917620E+00   .9180273E+00   .9390221E+00   .9548446E+00
   .9656725E+00   .9717255E+00   .9732518E+00   .9705161E+00   .9637909E+00
   .9533673E+00   .9395838E+00   .9228491E+00   .9036473E+00   .8825398E+00
   .8601559E+00   .8371541E+00   .8141754E+00   .7917900E+00   .7704431E+00
   .7504526E+00   .7320336E+00   .7153055E+00   .7002977E+00   .6869663E+00
   .6752161E+00   .6649204E+00   .6559428E+00   .6481549E+00   .6414528E+00
   .6357740E+00   .6311143E+00   .6275334E+00   .6251341E+00   .6240210E+00
   .6242508E+00   .6257824E+00   .6284416E+00   .6319197E+00   .6357987E+00
   .6395925E+00   .6427785E+00   .6448070E+00   .6451204E+00   .6432096E+00
   .6386854E+00   .6313152E+00   .6210350E+00   .6079719E+00   .5924549E+00
   .5749948E+00   .5562370E+00   .5368994E+00   .5177092E+00   .4993436E+00
   .4823987E+00   .4673692E+00   .4545968E+00   .4442143E+00   .4361514E+00
   .4302019E+00   .4261047E+00   .4236174E+00   .4225574E+00   .4228013E+00
   .4242702E+00   .4269167E+00   .4307122E+00   .4356349E+00   .4416584E+00
   .4487408E+00   .4568175E+00   .4658031E+00   .4756003E+00   .4861129E+00
   .4972520E+00   .5089355E+00   .5210891E+00   .5336495E+00   .5465682E+00
   .5598122E+00   .5733571E+00   .5871564E+00   .6010962E+00   .6149571E+00
   .6283909E+00   .6409223E+00   .6519839E+00   .6609887E+00   .6674225E+00
   .6709015E+00   .6711940E+00   .6682304E+00   .6620989E+00   .6530241E+00
   .6413407E+00   .6274626E+00   .6118443E+00   .5949272E+00   .5770858E+00
   .5586166E+00   .5397569E+00   .5206856E+00   .5015127E+00   .4822780E+00
   .4629674E+00   .4435386E+00   .4239450E+00   .4041617E+00   .3842118E+00
   .3641918E+00   .3442895E+00   .3247891E+00   .3060558E+00   .2884953E+00
   .2724942E+00   .2583627E+00   .2462996E+00   .2363641E+00   .2284424E+00
   .2222341E+00   .2172782E+00   .2130131E+00   .2088627E+00   .2043207E+00
   .1989700E+00   .1924575E+00   .1844881E+00   .1748201E+00   .1632422E+00
   .1495490E+00   .1335419E+00   .1150542E+00   .9398557E-01   .7033474E-01
   .4423417E-01   .1598448E-01  -.1392349E-01  -.4480848E-01  -.7583040E-01
  -.1060691E+00  -.1346482E+00  -.1608475E+00  -.1841277E+00  -.2041091E+00
  -.2205718E+00  -.2334459E+00  -.2427831E+00  -.2487312E+00  -.2515125E+00
  -.2514017E+00  -.2487005E+00  -.2437174E+00  -.2367740E+00  -.2282310E+00
  -.2184970E+00  -.2080104E+00  -.1972090E+00  -.1865201E+00  -.1763545E+00
  -.1670698E+00  -.1589208E+00  -.1520429E+00  -.1464713E+00  -.1421583E+00
  -.1389842E+00  -.1367622E+00  -.1352345E+00  -.1340772E+00  -.1329228E+00
  -.1314076E+00  -.1292380E+00  -.1262568E+00  -.1224584E+00  -.1179528E+00
  -.1129155E+00  -.1075361E+00  -.1019765E+00  -.9636183E-01  -.9079116E-01
  -.8534528E-01  -.8009153E-01  -.7508619E-01  -.7037339E-01  -.6598342E-01
  -.6193589E-01  -.5824395E-01  -.5491427E-01  -.5194413E-01  -.4931793E-01
  -.4700450E-01  -.4495707E-01  -.4311688E-01  -.4142080E-01  -.3981219E-01
  -.3824991E-01  -.3670890E-01  -.3517543E-01  -.3364327E-01  -.3211003E-01
  -.3057311E-01  -.2902552E-01  -.2745200E-01  -.2582597E-01  -.2410780E-01
  -.2224470E-01  -.2017201E-01  -.1781266E-01  -.1507103E-01  -.1182714E-01
  -.7940249E-02  -.3263179E-02   .2334921E-02   .8946773E-02   .1661405E-01
   .2531604E-01   .3495440E-01   .4533845E-01   .5617473E-01   .6706961E-01
   .7755624E-01   .8714489E-01   .9537637E-01   .1018479E+00   .1062316E+00
   .1083117E+00   .1080112E+00   .1054017E+00   .1007106E+00   .9432084E-01
   .8675469E-01   .7863572E-01   .7061787E-01   .6327763E-01   .5700239E-01
   .5195525E-01   .4811703E-01   .4533493E-01   .4335659E-01   .4185234E-01
   .4044178E-01   .3873781E-01   .3640217E-01   .3318910E-01   .2894708E-01
   .2359793E-01   .1712557E-01   .9570158E-02   .1020546E-02  -.8397000E-02
  -.1853405E-01  -.2923958E-01  -.4038299E-01  -.5187113E-01  -.6364595E-01
  -.7567106E-01  -.8792135E-01  -.1003745E+00  -.1130030E+00  -.1257649E+00
  -.1385908E+00  -.1513661E+00  -.1639191E+00  -.1760199E+00  -.1873923E+00
  -.1977357E+00  -.2067386E+00  -.2140943E+00  -.2195393E+00  -.2229016E+00
  -.2241298E+00  -.2232923E+00  -.2205631E+00  -.2162017E+00  -.2105235E+00
  -.2038714E+00  -.1965801E+00  -.1889293E+00  -.1811060E+00  -.1732098E+00
  -.1652834E+00  -.1573392E+00  -.1493827E+00  -.1414359E+00  -.1335554E+00
  -.1258442E+00  -.1184538E+00  -.1115738E+00  -.1054123E+00  -.1001773E+00
  -.9607483E-01  -.9331132E-01  -.9207960E-01  -.9253487E-01  -.9476576E-01
  -.9875823E-01  -.1043544E+00  -.1112178E+00  -.1188215E+00  -.1264769E+00
  -.1334182E+00  -.1389370E+00  -.1425286E+00  -.1439597E+00  -.1432257E+00
  -.1404765E+00  -.1359593E+00  -.1299921E+00  -.1229468E+00  -.1152171E+00
  -.1071775E+00  -.9915285E-01  -.9142322E-01  -.8424149E-01  -.7782995E-01
  -.7236064E-01  -.6793632E-01  -.6459244E-01  -.6231020E-01  -.6102288E-01
  -.6062056E-01  -.6095827E-01  -.6186696E-01  -.6316070E-01  -.6463613E-01
  -.6607616E-01  -.6726542E-01  -.6800627E-01  -.6812705E-01  -.6749553E-01
  -.6604699E-01  -.6382076E-01  -.6099148E-01  -.5787462E-01  -.5490028E-01
  -.5256098E-01  -.5133275E-01  -.5159520E-01  -.5361370E-01  -.5756501E-01
  -.6354550E-01  -.7156701E-01  -.8154984E-01  -.9331551E-01  -.1065835E+00
  -.1209768E+00  -.1360421E+00  -.1512809E+00  -.1661681E+00  -.1801733E+00
  -.1928023E+00  -.2036221E+00  -.2122709E+00  -.2184907E+00  -.2221774E+00
  -.2234132E+00  -.2224561E+00  -.2196989E+00  -.2156136E+00  -.2106943E+00
  -.2054359E+00  -.2003298E+00  -.1958297E+00  -.1923041E+00  -.1900138E+00
  -.1891274E+00  -.1897370E+00  -.1918603E+00  -.1954383E+00  -.2003416E+00
  -.2063894E+00  -.2133746E+00  -.2210975E+00  -.2293981E+00  -.2381651E+00
  -.2473154E+00  -.2567665E+00  -.2664148E+00  -.2761211E+00  -.2857040E+00
  -.2949427E+00  -.3035867E+00  -.3113762E+00  -.3180736E+00  -.3234868E+00
  -.3274547E+00  -.3298160E+00  -.3303904E+00  -.3289743E+00  -.3253493E+00
  -.3192967E+00  -.3106229E+00  -.2992037E+00  -.2850447E+00  -.2683382E+00
  -.2494889E+00  -.2290890E+00  -.2078524E+00  -.1865292E+00  -.1658226E+00
  -.1463110E+00  -.1283957E+00  -.1123185E+00  -.9820830E-01  -.8611448E-01
  -.7603260E-01  -.6792738E-01  -.6174959E-01  -.5744511E-01  -.5495750E-01
  -.5422650E-01  -.5518468E-01  -.5775083E-01  -.6181370E-01  -.6721396E-01
  -.7373962E-01  -.8113843E-01  -.8914751E-01  -.9753564E-01  -.1061373E+00
  -.1148509E+00  -.1236151E+00  -.1323905E+00  -.1411444E+00  -.1498387E+00
  -.1584225E+00  -.1668317E+00  -.1749970E+00  -.1828586E+00  -.1903841E+00
  -.1975779E+00  -.2044780E+00  -.2111458E+00  -.2176509E+00  -.2240511E+00
  -.2303733E+00  -.2366080E+00  -.2427158E+00  -.2486367E+00  -.2543047E+00
  -.2596639E+00  -.2646808E+00  -.2693456E+00  -.2736661E+00  -.2776589E+00
  -.2813357E+00  -.2846859E+00  -.2876579E+00  -.2901411E+00  -.2919549E+00
  -.2928483E+00  -.2925148E+00  -.2906159E+00  -.2867950E+00  -.2806858E+00
  -.2719424E+00  -.2602938E+00  -.2456033E+00  -.2278930E+00  -.2073201E+00
  -.1841315E+00  -.1586175E+00  -.1310792E+00  -.1018241E+00  -.7116680E-01
  -.3941657E-01  -.6858487E-02   .2624755E-01   .5963846E-01   .9301543E-01
   .1260318E+00   .1582958E+00   .1893679E+00   .2187551E+00   .2459284E+00
   .2703754E+00   .2916624E+00   .3094467E+00   .3234589E+00   .3335107E+00
   .3395212E+00   .3415422E+00   .3397553E+00   .3344444E+00   .3259605E+00
   .3146809E+00   .3009828E+00   .2852637E+00   .2679778E+00   .2496465E+00
   .2308463E+00   .2121723E+00   .1941677E+00   .1772380E+00   .1616136E+00
   .1473842E+00   .1345532E+00   .1230847E+00   .1129449E+00   .1041276E+00
   .9666007E-01   .9059685E-01   .8600095E-01   .8291406E-01   .8131979E-01
   .8110820E-01   .8205376E-01   .8381539E-01   .8596333E-01   .8803611E-01
   .8962428E-01   .9045087E-01   .9038357E-01   .8939317E-01   .8751665E-01
   .8482185E-01   .8137453E-01   .7722298E-01   .7240560E-01   .6697138E-01
   .6100555E-01   .5465646E-01   .4815723E-01   .4183764E-01   .3612755E-01
   .3154558E-01   .2865519E-01   .2798295E-01   .2991998E-01   .3466569E-01
   .4225713E-01   .5263936E-01   .6572502E-01   .8142866E-01   .9966424E-01
   .1203215E+00   .1432403E+00   .1681875E+00   .1948410E+00   .2227906E+00
   .2515528E+00   .2806123E+00   .3094952E+00   .3378505E+00   .3654749E+00
   .3922628E+00   .4181330E+00   .4429663E+00   .4665635E+00   .4886435E+00
   .5088758E+00   .5269261E+00   .5424811E+00   .5552457E+00   .5649458E+00
   .5713521E+00   .5743131E+00   .5737755E+00   .5697899E+00   .5625164E+00
   .5522255E+00   .5392885E+00   .5241547E+00   .5073280E+00   .4893339E+00
   .4706628E+00   .4517053E+00   .4327389E+00   .4139614E+00   .3955184E+00
   .3775140E+00   .3600144E+00   .3430512E+00   .3266237E+00   .3106954E+00
   .2951845E+00   .2799560E+00   .2648191E+00   .2495351E+00   .2338322E+00
   .2174138E+00   .1999704E+00   .1812138E+00   .1609280E+00   .1390101E+00
   .1154737E+00   .9042390E-01   .6403007E-01   .3649228E-01   .8006128E-02
  -.2125480E-01  -.5113321E-01  -.8147593E-01  -.1121238E+00  -.1428976E+00
  -.1735677E+00  -.2038159E+00  -.2332128E+00  -.2612217E+00  -.2872162E+00
  -.3104783E+00  -.3302038E+00  -.3455682E+00  -.3558505E+00  -.3605734E+00
  -.3595745E+00  -.3529736E+00  -.3411011E+00  -.3244216E+00  -.3034573E+00
  -.2787591E+00  -.2509138E+00  -.2205353E+00  -.1882228E+00  -.1545052E+00
  -.1198107E+00  -.8449130E-01  -.4885879E-01  -.1319217E-01   .2227084E-01
   .5733102E-01   .9180858E-01   .1255303E+00   .1583322E+00   .1900691E+00
   .2206122E+00   .2498378E+00   .2776212E+00   .3038388E+00   .3283716E+00
   .3510996E+00   .3718881E+00   .3905824E+00   .4070142E+00   .4210196E+00
   .4324654E+00   .4412732E+00   .4474095E+00   .4508540E+00   .4515714E+00
   .4494936E+00   .4445172E+00   .4365297E+00   .4254598E+00   .4113343E+00
   .3943279E+00   .3747719E+00   .3531211E+00   .3298949E+00   .3056081E+00
   .2807370E+00   .2557176E+00   .2309257E+00   .2066356E+00   .1829881E+00
   .1599980E+00   .1375873E+00   .1156170E+00   .9392231E-01   .7234896E-01
   .5077987E-01   .2914668E-01   .7437792E-02  -.1429300E-01  -.3592160E-01
  -.5725672E-01  -.7805635E-01  -.9806071E-01  -.1170399E+00  -.1348461E+00
  -.1514443E+00  -.1668991E+00  -.1813374E+00  -.1949061E+00  -.2077260E+00
  -.2198581E+00  -.2313183E+00  -.2421278E+00  -.2523627E+00  -.2621854E+00
  -.2718294E+00  -.2815422E+00  -.2915198E+00  -.3018659E+00  -.3125963E+00
  -.3236693E+00  -.3350165E+00  -.3465768E+00  -.3583251E+00  -.3702726E+00
  -.3824435E+00  -.3948481E+00  -.4074567E+00  -.4201877E+00  -.4329159E+00
  -.4454954E+00  -.4577925E+00  -.4697171E+00  -.4812307E+00  -.4923329E+00
  -.5030472E+00  -.5134031E+00  -.5234158E+00  -.5330684E+00  -.5422981E+00
  -.5509884E+00  -.5589705E+00  -.5660353E+00  -.5719479E+00  -.5764688E+00
  -.5793938E+00  -.5806118E+00  -.5801668E+00  -.5782989E+00  -.5754417E+00
  -.5721779E+00  -.5691617E+00  -.5670262E+00  -.5663344E+00  -.5675518E+00
  -.5709854E+00  -.5767036E+00  -.5844799E+00  -.5938254E+00  -.6041017E+00
  -.6146619E+00  -.6249857E+00  -.6347275E+00  -.6436972E+00  -.6518499E+00
  -.6592744E+00  -.6661633E+00  -.6727610E+00  -.6792907E+00  -.6858755E+00
  -.6924586E+00  -.6987490E+00  -.7042293E+00  -.7082303E+00  -.7100500E+00
  -.7091108E+00  -.7051097E+00  -.6980541E+00  -.6881795E+00  -.6758339E+00
  -.6613616E+00  -.6450255E+00  -.6270066E+00  -.6074454E+00  -.5864853E+00
  -.5643164E+00  -.5412087E+00  -.5175231E+00  -.4936921E+00  -.4701758E+00
  -.4474176E+00  -.4258205E+00  -.4057205E+00  -.3873502E+00  -.3708319E+00
  -.3561951E+00  -.3433882E+00  -.3322871E+00  -.3227073E+00  -.3144192E+00
  -.3071639E+00  -.3006658E+00  -.2946530E+00  -.2888898E+00  -.2832050E+00
  -.2774840E+00  -.2716325E+00  -.2655484E+00  -.2590997E+00  -.2521061E+00
  -.2443246E+00  -.2354472E+00  -.2251214E+00  -.2129861E+00  -.1986949E+00
  -.1819339E+00  -.1624579E+00  -.1401468E+00  -.1150572E+00  -.8743060E-01
  -.5766068E-01  -.2625463E-01   .6193586E-02   .3903022E-01   .7159601E-01
   .1033066E+00   .1337212E+00   .1625212E+00   .1894279E+00   .2141572E+00
   .2364056E+00   .2558557E+00   .2721883E+00   .2850946E+00   .2942999E+00
   .2995983E+00   .3008818E+00   .2981695E+00   .2916392E+00   .2816440E+00
   .2687003E+00   .2534456E+00   .2365736E+00   .2187813E+00   .2007331E+00
   .1830079E+00   .1660378E+00   .1501064E+00   .1353898E+00   .1219778E+00
   .1098833E+00   .9905526E-01   .8940073E-01   .8081181E-01   .7319130E-01
   .6647287E-01   .6062304E-01   .5563068E-01   .5149910E-01   .4824104E-01
   .4587668E-01   .4443892E-01   .4398444E-01   .4460204E-01   .4641076E-01
   .4954309E-01   .5410672E-01   .6011624E-01   .6740642E-01   .7556190E-01
   .8391349E-01   .9164626E-01   .9795083E-01   .1021048E+00   .1035140E+00
   .1017454E+00   .9653185E-01   .8778862E-01   .7565424E-01   .6053092E-01
   .4308693E-01   .2417315E-01   .4670903E-02  -.1464061E-01  -.3312640E-01
  -.5029099E-01  -.6578563E-01  -.7940512E-01  -.9107729E-01  -.1008471E+00
  -.1088333E+00  -.1151678E+00  -.1199443E+00  -.1231907E+00  -.1248694E+00
  -.1248921E+00  -.1231404E+00  -.1194901E+00  -.1138297E+00  -.1060781E+00
  -.9620682E-01  -.8426235E-01  -.7038365E-01  -.5480574E-01  -.3783363E-01
  -.1978758E-01  -.9631694E-03   .1838355E-01   .3805330E-01   .5791298E-01
   .7788172E-01   .9790741E-01   .1179480E+00   .1379555E+00   .1578624E+00
   .1775735E+00   .1969669E+00   .2159007E+00   .2342192E+00   .2517550E+00
   .2683373E+00   .2838048E+00   .2980110E+00   .3108154E+00   .3220726E+00
   .3316327E+00   .3393483E+00   .3450892E+00   .3487656E+00   .3503529E+00
   .3499188E+00   .3476468E+00   .3438408E+00   .3389098E+00   .3333519E+00
   .3277411E+00   .3226915E+00   .3187823E+00   .3164671E+00   .3160296E+00
   .3175729E+00   .3210065E+00   .3260675E+00   .3323821E+00   .3395345E+00
   .3471038E+00   .3546662E+00   .3618008E+00   .3681120E+00   .3732509E+00
   .3769358E+00   .3789910E+00   .3793894E+00   .3782580E+00   .3758306E+00
   .3723780E+00   .3681434E+00   .3633153E+00   .3580304E+00   .3523803E+00
   .3464274E+00   .3402238E+00   .3338277E+00   .3273152E+00   .3207907E+00
   .3143977E+00   .3083240E+00   .3027925E+00   .2980375E+00   .2942766E+00
   .2916975E+00   .2904611E+00   .2906989E+00   .2925107E+00   .2959748E+00
   .3011681E+00   .3081763E+00   .3170949E+00   .3280215E+00   .3410430E+00
   .3562180E+00   .3735526E+00   .3929797E+00   .4143498E+00   .4374310E+00
   .4619198E+00   .4874571E+00   .5136550E+00   .5401364E+00   .5665680E+00
   .5926661E+00   .6181996E+00   .6430056E+00   .6670020E+00   .6901605E+00
   .7124555E+00   .7338211E+00   .7541341E+00   .7732253E+00   .7909139E+00
   .8070439E+00   .8214950E+00   .8341641E+00   .8449404E+00   .8536912E+00
   .8602621E+00   .8644964E+00   .8662725E+00   .8655555E+00   .8624461E+00
   .8571998E+00   .8502068E+00   .8419524E+00   .8329764E+00   .8238542E+00
   .8151739E+00   .8074754E+00   .8011762E+00   .7965451E+00   .7937061E+00
   .7926250E+00   .7930883E+00   .7946936E+00   .7968630E+00   .7988888E+00
   .8000150E+00   .7995428E+00   .7969523E+00   .7919996E+00   .7846781E+00
   .7750639E+00   .7632072E+00   .7491073E+00   .7327201E+00   .7139777E+00
   .6928260E+00   .6692755E+00   .6434538E+00   .6156353E+00   .5862069E+00
   .5555914E+00   .5242049E+00   .4924587E+00   .4607549E+00   .4294585E+00
   .3988641E+00   .3691964E+00   .3406394E+00   .3133574E+00   .2875035E+00
   .2632239E+00   .2406589E+00   .2199340E+00   .2011385E+00   .1843043E+00
   .1694064E+00   .1563823E+00   .1451572E+00   .1356751E+00   .1279327E+00
   .1220050E+00   .1180476E+00   .1162752E+00   .1169256E+00   .1202168E+00
   .1263127E+00   .1352901E+00   .1470930E+00   .1614860E+00   .1780200E+00
   .1960248E+00   .2146427E+00   .2329107E+00   .2498767E+00   .2647115E+00
   .2767799E+00   .2856275E+00   .2909227E+00   .2924304E+00   .2900069E+00
   .2836127E+00   .2733394E+00   .2594397E+00   .2423302E+00   .2225510E+00
   .2006908E+00   .1772893E+00   .1527616E+00   .1274019E+00   .1014344E+00
   .7504571E-01   .4840616E-01   .2168930E-01  -.4899645E-02  -.3109707E-01
  -.5657966E-01  -.8098983E-01  -.1039839E+00  -.1252822E+00  -.1446734E+00
  -.1619868E+00  -.1770780E+00  -.1898255E+00  -.2001312E+00  -.2079187E+00
  -.2131301E+00  -.2157326E+00  -.2157343E+00  -.2132053E+00  -.2082985E+00
  -.2012633E+00  -.1924445E+00  -.1822605E+00  -.1711549E+00  -.1595280E+00
  -.1476781E+00  -.1358186E+00  -.1241516E+00  -.1129260E+00  -.1024781E+00
  -.9324831E-01  -.8576497E-01  -.8058602E-01  -.7820080E-01  -.7892014E-01
  -.8283314E-01  -.8988366E-01  -.9997905E-01  -.1130092E+00  -.1288051E+00
  -.1471064E+00  -.1675441E+00  -.1896468E+00  -.2128802E+00  -.2367066E+00
  -.2606348E+00  -.2842150E+00  -.3070135E+00  -.3286200E+00  -.3486703E+00
  -.3668515E+00  -.3829011E+00  -.3966331E+00  -.4079776E+00  -.4170018E+00
  -.4239018E+00  -.4289790E+00  -.4326158E+00  -.4352642E+00  -.4374383E+00
  -.4396831E+00  -.4425247E+00  -.4464398E+00  -.4518534E+00  -.4591315E+00
  -.4685698E+00  -.4803878E+00  -.4947135E+00  -.5115614E+00  -.5308366E+00
  -.5523595E+00  -.5758930E+00  -.6011681E+00  -.6278935E+00  -.6557452E+00
  -.6843657E+00  -.7133817E+00  -.7424393E+00  -.7712303E+00  -.7994807E+00
  -.8269244E+00  -.8532972E+00  -.8783486E+00  -.9018526E+00  -.9236000E+00
  -.9433878E+00  -.9610273E+00  -.9763676E+00  -.9893215E+00  -.9998722E+00
  -.1008063E+01  -.1013990E+01  -.1017783E+01  -.1019594E+01  -.1019572E+01
  -.1017833E+01  -.1014435E+01  -.1009369E+01  -.1002592E+01  -.9940847E+00
  -.9839166E+00  -.9722943E+00  -.9595876E+00  -.9463037E+00  -.9330164E+00
  -.9202599E+00  -.9084235E+00  -.8977267E+00  -.8882590E+00  -.8800101E+00
  -.8728976E+00  -.8667899E+00  -.8615263E+00  -.8569425E+00  -.8529027E+00
  -.8493364E+00  -.8462751E+00  -.8438786E+00  -.8424376E+00  -.8423471E+00
  -.8440506E+00  -.8479529E+00  -.8543068E+00  -.8631100E+00  -.8740802E+00
  -.8867137E+00  -.9003596E+00  -.9142913E+00  -.9277914E+00  -.9402242E+00
  -.9510644E+00  -.9599138E+00  -.9665269E+00  -.9708037E+00  -.9727473E+00
  -.9724225E+00  -.9699233E+00  -.9653515E+00  -.9588052E+00  -.9503720E+00
  -.9401217E+00  -.9281016E+00  -.9143397E+00  -.8988536E+00  -.8816579E+00
  -.8627692E+00  -.8422109E+00  -.8200208E+00  -.7962562E+00  -.7709965E+00
  -.7443392E+00  -.7163937E+00  -.6872732E+00  -.6570836E+00  -.6259092E+00
  -.5938023E+00  -.5607931E+00  -.5269197E+00  -.4922611E+00  -.4569669E+00
  -.4212793E+00  -.3855419E+00  -.3501885E+00  -.3157049E+00  -.2825724E+00
  -.2512222E+00  -.2220287E+00  -.1953086E+00  -.1713050E+00  -.1501797E+00
  -.1320222E+00  -.1168588E+00  -.1046537E+00  -.9531165E-01  -.8869061E-01
  -.8462437E-01  -.8295078E-01  -.8354129E-01  -.8631661E-01  -.9123622E-01
  -.9827446E-01  -.1073956E+00  -.1185268E+00  -.1315313E+00  -.1461871E+00
  -.1621815E+00  -.1791241E+00  -.1965780E+00  -.2140888E+00  -.2311830E+00
  -.2473633E+00  -.2621393E+00  -.2750886E+00  -.2859253E+00  -.2945188E+00
  -.3008649E+00  -.3050510E+00  -.3072218E+00  -.3075396E+00  -.3061444E+00
  -.3031354E+00  -.2985697E+00  -.2924642E+00  -.2847950E+00  -.2754956E+00
  -.2644539E+00  -.2515085E+00  -.2364551E+00  -.2190682E+00  -.1991383E+00
  -.1765199E+00  -.1511694E+00  -.1231744E+00  -.9278680E-01  -.6044884E-01
  -.2680835E-01   .7294555E-02   .4089193E-01   .7300392E-01   .1027788E+00
   .1296158E+00   .1531799E+00   .1733123E+00   .1899499E+00   .2030888E+00
   .2127719E+00   .2190822E+00   .2221337E+00   .2220650E+00   .2190451E+00
   .2133030E+00   .2051714E+00   .1951186E+00   .1837474E+00   .1717529E+00
   .1598348E+00   .1485751E+00   .1383422E+00   .1292995E+00   .1214809E+00
   .1148534E+00   .1093634E+00   .1049649E+00   .1016395E+00   .9940903E-01
   .9833862E-01   .9852861E-01   .1001009E+00   .1031787E+00   .1078572E+00
   .1141708E+00   .1220651E+00   .1313936E+00   .1419398E+00   .1534542E+00
   .1656956E+00   .1784527E+00   .1915402E+00   .2047908E+00   .2180525E+00
   .2311778E+00   .2440109E+00   .2563829E+00   .2681179E+00   .2790408E+00
   .2889845E+00   .2978027E+00   .3053839E+00   .3116431E+00   .3164936E+00
   .3198199E+00   .3214585E+00   .3211903E+00   .3187463E+00   .3138273E+00
   .3061427E+00   .2954656E+00   .2816784E+00   .2647975E+00   .2449906E+00
   .2225863E+00   .1980656E+00   .1720241E+00   .1451089E+00   .1179549E+00
   .9115904E-01   .6526551E-01   .4073544E-01   .1794340E-01  -.2809384E-02
  -.2130738E-01  -.3744630E-01  -.5123695E-01  -.6275023E-01  -.7203993E-01
  -.7911766E-01  -.8397510E-01  -.8661726E-01  -.8709684E-01  -.8554087E-01
  -.8215878E-01  -.7723173E-01  -.7108601E-01  -.6406059E-01  -.5649902E-01
  -.4875294E-01  -.4116400E-01  -.3403522E-01  -.2762082E-01  -.2214007E-01
  -.1779078E-01  -.1475631E-01  -.1321280E-01  -.1332696E-01  -.1523716E-01
  -.1902560E-01  -.2468702E-01  -.3210032E-01  -.4101813E-01  -.5107798E-01
  -.6183222E-01  -.7279052E-01  -.8344892E-01  -.9331687E-01  -.1019608E+00
  -.1090277E+00  -.1142462E+00  -.1174363E+00  -.1185142E+00  -.1174776E+00
  -.1143829E+00  -.1093282E+00  -.1024435E+00  -.9388953E-01  -.8386512E-01
  -.7260736E-01  -.6038457E-01  -.4749002E-01  -.3424929E-01  -.2102459E-01
  -.8193667E-02   .3893482E-02   .1495709E-01   .2478152E-01   .3317624E-01
   .3995353E-01   .4492122E-01   .4788310E-01   .4864347E-01   .4702263E-01
   .4289086E-01   .3620941E-01   .2705358E-01   .1560681E-01   .2138575E-02
  -.1301992E-01  -.2948450E-01  -.4682559E-01  -.6460305E-01  -.8242144E-01
  -.9997625E-01  -.1170550E+00  -.1335144E+00  -.1492699E+00  -.1642927E+00
  -.1786027E+00  -.1922441E+00  -.2052488E+00  -.2176000E+00  -.2292012E+00
  -.2398548E+00  -.2492625E+00  -.2570491E+00  -.2628123E+00  -.2661928E+00
  -.2669451E+00  -.2649546E+00  -.2602002E+00  -.2527091E+00  -.2425126E+00
  -.2296068E+00  -.2139319E+00  -.1953838E+00  -.1738515E+00  -.1492695E+00
  -.1216775E+00  -.9126618E-01  -.5838870E-01  -.2353866E-01   .1270149E-01
   .4972911E-01   .8696603E-01   .1238908E+00   .1600836E+00   .1952345E+00
   .2290978E+00   .2614405E+00   .2920111E+00   .3205281E+00   .3466922E+00
   .3702242E+00   .3909138E+00   .4086441E+00   .4233754E+00   .4351175E+00
   .4439022E+00   .4497535E+00   .4526596E+00   .4525551E+00   .4493187E+00
   .4427909E+00   .4328183E+00   .4193266E+00   .4024057E+00   .3823746E+00
   .3597756E+00   .3352687E+00   .3094748E+00   .2828706E+00   .2557848E+00
   .2284369E+00   .2009597E+00   .1734182E+00   .1458292E+00   .1181878E+00
   .9049585E-01   .6278398E-01   .3512295E-01   .7624851E-02  -.1956709E-01
  -.4629922E-01  -.7243581E-01  -.9788430E-01  -.1225956E+00  -.1465450E+00
  -.1697128E+00  -.1920670E+00  -.2135484E+00  -.2340642E+00  -.2534916E+00
  -.2716927E+00  -.2885408E+00  -.3039494E+00  -.3178847E+00  -.3303613E+00
  -.3414321E+00  -.3511749E+00  -.3596746E+00  -.3670091E+00  -.3732390E+00
  -.3783941E+00  -.3824605E+00  -.3853701E+00  -.3870000E+00  -.3871845E+00
  -.3857430E+00  -.3825211E+00  -.3774417E+00  -.3705487E+00  -.3620276E+00
  -.3522064E+00  -.3415374E+00  -.3305549E+00  -.3198205E+00  -.3098942E+00
  -.3013157E+00  -.2945579E+00  -.2899850E+00  -.2878404E+00  -.2882390E+00
  -.2911464E+00  -.2963633E+00  -.3035431E+00  -.3122369E+00  -.3219439E+00
  -.3321396E+00  -.3422815E+00  -.3518299E+00  -.3603024E+00  -.3673366E+00
  -.3727092E+00  -.3763114E+00  -.3781273E+00  -.3782181E+00  -.3767003E+00
  -.3737040E+00  -.3693175E+00  -.3635415E+00  -.3562739E+00  -.3473512E+00
  -.3366323E+00  -.3240951E+00  -.3099314E+00  -.2946062E+00  -.2788393E+00
  -.2635090E+00  -.2494997E+00  -.2375289E+00  -.2280505E+00  -.2212717E+00
  -.2172017E+00  -.2156956E+00  -.2165011E+00  -.2193111E+00  -.2238155E+00
  -.2297237E+00  -.2367435E+00  -.2445452E+00  -.2527452E+00  -.2609161E+00
  -.2686266E+00  -.2755003E+00  -.2812545E+00  -.2856895E+00  -.2886611E+00
  -.2900693E+00  -.2898561E+00  -.2880051E+00  -.2845409E+00  -.2795308E+00
  -.2730858E+00  -.2653555E+00  -.2565126E+00  -.2467243E+00  -.2361137E+00
  -.2247253E+00  -.2125228E+00  -.1994202E+00  -.1853231E+00  -.1701717E+00
  -.1539734E+00  -.1368040E+00  -.1187858E+00  -.1000554E+00  -.8072784E-01
  -.6087066E-01  -.4050321E-01  -.1960992E-01   .1844405E-02   .2389669E-01
   .4656872E-01   .6986206E-01   .9376559E-01   .1182678E+00   .1433703E+00
   .1691009E+00   .1955173E+00   .2226939E+00   .2506897E+00   .2795079E+00
   .3090551E+00   .3391154E+00   .3693500E+00   .3993210E+00   .4285290E+00
   .4564395E+00   .4824972E+00   .5061614E+00   .5269727E+00   .5446173E+00
   .5589456E+00   .5699635E+00   .5778347E+00   .5828807E+00   .5855657E+00
   .5864595E+00   .5861731E+00   .5852865E+00   .5843194E+00   .5837390E+00
   .5839457E+00   .5852315E+00   .5877379E+00   .5914626E+00   .5963047E+00
   .6021057E+00   .6086876E+00   .6158784E+00   .6235287E+00   .6315306E+00
   .6398407E+00   .6484955E+00   .6576003E+00   .6672957E+00   .6777179E+00
   .6889580E+00   .7010352E+00   .7139061E+00   .7274972E+00   .7417347E+00
   .7565548E+00   .7719008E+00   .7877202E+00   .8039629E+00   .8205766E+00
   .8375026E+00   .8546693E+00   .8719795E+00   .8892920E+00   .9064098E+00
   .9230846E+00   .9390391E+00   .9540068E+00   .9677817E+00   .9802476E+00
   .9913673E+00   .1001152E+01   .1009631E+01   .1016833E+01   .1022769E+01
   .1027430E+01   .1030784E+01   .1032778E+01   .1033350E+01   .1032442E+01
   .1030010E+01   .1026026E+01   .1020483E+01   .1013401E+01   .1004827E+01
   .9948420E+00   .9835642E+00   .9711475E+00   .9577751E+00   .9436453E+00
   .9289580E+00   .9139227E+00   .8987828E+00   .8838285E+00   .8693876E+00
   .8557951E+00   .8433460E+00   .8322553E+00   .8226583E+00   .8146341E+00
   .8082189E+00   .8034138E+00   .8001905E+00   .7984964E+00   .7982575E+00
   .7993809E+00   .8017572E+00   .8052609E+00   .8097395E+00   .8150001E+00
   .8208078E+00   .8268946E+00   .8329663E+00   .8387175E+00   .8438685E+00
   .8482103E+00   .8516265E+00   .8540899E+00   .8556589E+00   .8564728E+00
   .8567407E+00   .8567194E+00   .8566787E+00   .8568566E+00   .8574251E+00
   .8584881E+00   .8601009E+00   .8622844E+00   .8650372E+00   .8683484E+00
   .8722082E+00   .8766155E+00   .8815793E+00   .8871161E+00   .8932419E+00
   .8999647E+00   .9072790E+00   .9151647E+00   .9235918E+00   .9325283E+00
   .9419515E+00   .9518610E+00   .9622902E+00   .9733113E+00   .9850281E+00
   .9975562E+00   .1010989E+01   .1025355E+01   .1040570E+01   .1056392E+01
   .1072394E+01   .1087973E+01   .1102413E+01   .1114998E+01   .1125135E+01
   .1132398E+01   .1136482E+01   .1137124E+01   .1134082E+01   .1127135E+01
   .1116133E+01   .1101064E+01   .1082096E+01   .1059574E+01   .1033937E+01
   .1005655E+01   .9752202E+00   .9431685E+00   .9100868E+00   .8765815E+00
   .8432350E+00   .8105754E+00   .7790400E+00   .7489238E+00   .7203640E+00
   .6933797E+00   .6679266E+00   .6439442E+00   .6213863E+00   .6002292E+00
   .5804664E+00   .5620967E+00   .5451117E+00   .5294880E+00   .5151915E+00
   .5021872E+00   .4904394E+00   .4798855E+00   .4703925E+00   .4617224E+00
   .4535142E+00   .4452897E+00   .4364943E+00   .4265768E+00   .4151014E+00
   .4018534E+00   .3868510E+00   .3702369E+00   .3521528E+00   .3326953E+00
   .3119450E+00   .2900078E+00   .2670535E+00   .2433423E+00   .2192082E+00
   .1949996E+00   .1710356E+00   .1476006E+00   .1249376E+00   .1032346E+00
   .8263390E-01   .6326379E-01   .4526684E-01   .2881527E-01   .1411281E-01
   .1381108E-02  -.9162145E-02  -.1731238E-01  -.2288329E-01  -.2573053E-01
  -.2578820E-01  -.2310443E-01  -.1786489E-01  -.1040232E-01  -.1190319E-02
   .9184278E-02   .2007532E-01   .3085605E-01   .4098682E-01   .5001882E-01
   .5756357E-01   .6327233E-01   .6680567E-01   .6780755E-01   .6591451E-01
   .6080102E-01   .5225362E-01   .4024474E-01   .2494267E-01   .6637949E-02
  -.1434474E-01  -.3767347E-01  -.6299936E-01  -.8996526E-01  -.1182187E+00
  -.1473993E+00  -.1771155E+00  -.2069446E+00  -.2364476E+00  -.2651719E+00
  -.2926368E+00  -.3183407E+00  -.3417956E+00  -.3625618E+00  -.3802823E+00
  -.3947296E+00  -.4058405E+00  -.4137070E+00  -.4185430E+00  -.4206456E+00
  -.4203530E+00  -.4179952E+00  -.4138412E+00  -.4080734E+00  -.4007926E+00
  -.3920276E+00  -.3817548E+00  -.3699386E+00  -.3565842E+00  -.3417796E+00
  -.3257081E+00  -.3086306E+00  -.2908536E+00  -.2727078E+00  -.2545457E+00
  -.2367400E+00  -.2196606E+00  -.2036460E+00  -.1890003E+00  -.1760106E+00
  -.1649503E+00  -.1560680E+00  -.1495791E+00  -.1456564E+00  -.1444161E+00
  -.1459293E+00  -.1502549E+00  -.1574593E+00  -.1675985E+00  -.1806626E+00
  -.1965085E+00  -.2148133E+00  -.2350881E+00  -.2567541E+00  -.2792388E+00
  -.3020296E+00  -.3246509E+00  -.3466172E+00  -.3674110E+00  -.3864653E+00
  -.4031517E+00  -.4168093E+00  -.4268312E+00  -.4327958E+00  -.4346082E+00
  -.4325503E+00  -.4271287E+00  -.4188546E+00  -.4081733E+00  -.3954735E+00
  -.3810671E+00  -.3651646E+00  -.3478743E+00  -.3292226E+00  -.3091736E+00
  -.2876527E+00  -.2645851E+00  -.2399441E+00  -.2137937E+00  -.1863175E+00
  -.1578265E+00  -.1287493E+00  -.9960789E-01  -.7099567E-01  -.4354391E-01
  -.1785240E-01   .5588264E-02   .2641423E-01   .4435159E-01   .5919258E-01
   .7080118E-01   .7913889E-01   .8429953E-01   .8653352E-01   .8622629E-01
   .8382611E-01   .7974836E-01   .7429294E-01   .6764412E-01   .5993183E-01
   .5128256E-01   .4185834E-01   .3188005E-01   .2162061E-01   .1136881E-01
   .1377709E-02  -.8173093E-02  -.1717830E-01  -.2559222E-01  -.3341982E-01
  -.4070862E-01  -.4754015E-01  -.5402615E-01  -.6030917E-01  -.6655989E-01
  -.7296617E-01  -.7971339E-01  -.8696338E-01  -.9484995E-01  -.1034844E+00
  -.1129522E+00  -.1233068E+00  -.1345732E+00  -.1467576E+00  -.1598537E+00
  -.1738453E+00  -.1887079E+00  -.2044077E+00  -.2208979E+00  -.2381113E+00
  -.2559523E+00  -.2742945E+00  -.2929842E+00  -.3118488E+00  -.3306967E+00
  -.3493112E+00  -.3674531E+00  -.3848821E+00  -.4013939E+00  -.4168620E+00
  -.4312567E+00  -.4446385E+00  -.4571449E+00  -.4689686E+00  -.4803249E+00
  -.4914082E+00  -.5023509E+00  -.5132146E+00  -.5240067E+00  -.5346965E+00
  -.5452338E+00  -.5555706E+00  -.5656814E+00  -.5755752E+00  -.5852959E+00
  -.5949141E+00  -.6045123E+00  -.6141643E+00  -.6239119E+00  -.6337487E+00
  -.6436296E+00  -.6535049E+00  -.6633566E+00  -.6732191E+00  -.6831647E+00
  -.6932632E+00  -.7035357E+00  -.7139104E+00  -.7242032E+00  -.7341414E+00
  -.7434187E+00  -.7517577E+00  -.7589456E+00  -.7648330E+00  -.7693266E+00
  -.7723884E+00  -.7740350E+00  -.7743315E+00  -.7733784E+00  -.7712936E+00
  -.7681900E+00  -.7641531E+00  -.7592287E+00  -.7534360E+00  -.7467938E+00
  -.7393382E+00  -.7311192E+00  -.7221773E+00  -.7125149E+00  -.7020700E+00
  -.6907045E+00  -.6782316E+00  -.6644981E+00  -.6494976E+00  -.6334751E+00
  -.6169738E+00  -.6007247E+00  -.5854130E+00  -.5715085E+00  -.5592561E+00
  -.5487444E+00  -.5399749E+00  -.5329396E+00  -.5277008E+00  -.5244391E+00
  -.5234243E+00  -.5249139E+00  -.5290276E+00  -.5356297E+00  -.5442959E+00
  -.5543909E+00  -.5651745E+00  -.5758693E+00  -.5857275E+00  -.5941381E+00
  -.6007142E+00  -.6053353E+00  -.6081704E+00  -.6096846E+00  -.6105861E+00
  -.6116782E+00  -.6136421E+00  -.6168441E+00  -.6213009E+00  -.6267991E+00
  -.6330405E+00  -.6397427E+00  -.6466698E+00  -.6536309E+00  -.6604815E+00
  -.6671213E+00  -.6734877E+00  -.6795488E+00  -.6852974E+00  -.6907434E+00
  -.6959050E+00  -.7008014E+00  -.7054512E+00  -.7098713E+00  -.7140766E+00
  -.7180791E+00  -.7218860E+00  -.7254969E+00  -.7288987E+00  -.7320601E+00
  -.7349283E+00  -.7374276E+00  -.7394639E+00  -.7409356E+00  -.7417539E+00
  -.7418704E+00  -.7413081E+00  -.7401825E+00  -.7386945E+00  -.7370940E+00
  -.7356428E+00  -.7345733E+00  -.7340375E+00  -.7340705E+00  -.7345988E+00
  -.7354840E+00  -.7365737E+00  -.7377521E+00  -.7389684E+00  -.7402437E+00
  -.7416744E+00  -.7434266E+00  -.7457182E+00  -.7487979E+00  -.7529159E+00
  -.7582783E+00  -.7649879E+00  -.7729884E+00  -.7820445E+00  -.7917725E+00
  -.8016994E+00  -.8113194E+00  -.8201241E+00  -.8276268E+00  -.8333985E+00
  -.8370753E+00  -.8383505E+00  -.8369932E+00  -.8328891E+00  -.8260908E+00
  -.8168608E+00  -.8056663E+00  -.7930810E+00  -.7796264E+00  -.7656485E+00
  -.7513015E+00  -.7365987E+00  -.7214599E+00  -.7057622E+00  -.6893891E+00
  -.6722727E+00  -.6544310E+00  -.6359883E+00  -.6171591E+00  -.5981741E+00
  -.5791887E+00  -.5602554E+00  -.5413468E+00  -.5223825E+00  -.5032612E+00
  -.4838968E+00  -.4642326E+00  -.4442398E+00  -.4239144E+00  -.4032730E+00
  -.3823478E+00  -.3611829E+00  -.3398309E+00  -.3183478E+00  -.2967855E+00
  -.2751847E+00  -.2535702E+00  -.2319522E+00  -.2103327E+00  -.1887102E+00
  -.1670843E+00  -.1454588E+00  -.1238441E+00  -.1022569E+00  -.8071801E-01
  -.5924843E-01  -.3786455E-01  -.1657423E-01   .4626884E-02   .2575783E-01
   .4685208E-01   .6795326E-01   .8910608E-01   .1103424E+00   .1316640E+00
   .1530260E+00   .1743233E+00   .1953845E+00   .2159773E+00   .2358271E+00
   .2546464E+00   .2721690E+00   .2881947E+00   .3026371E+00   .3155412E+00
   .3270586E+00   .3374020E+00   .3467952E+00   .3554366E+00   .3634897E+00
   .3710832E+00   .3783045E+00   .3851899E+00   .3917156E+00   .3977962E+00
   .4033070E+00   .4081286E+00   .4121929E+00   .4155117E+00   .4181732E+00
   .4203181E+00   .4221084E+00   .4236959E+00   .4252108E+00   .4267656E+00
   .4284512E+00   .4303292E+00   .4324216E+00   .4347031E+00   .4371039E+00
   .4395270E+00   .4418743E+00   .4440751E+00   .4461159E+00   .4480527E+00
   .4499786E+00   .4519705E+00   .4540707E+00   .4562872E+00   .4585942E+00
   .4609357E+00   .4632354E+00   .4654152E+00   .4674169E+00   .4692245E+00
   .4708718E+00   .4724284E+00   .4739717E+00   .4755599E+00   .4772191E+00
   .4789537E+00   .4807714E+00   .4827075E+00   .4848453E+00   .4873195E+00
   .4903024E+00   .4939770E+00   .4984990E+00   .5039608E+00   .5103879E+00
   .5177617E+00   .5260430E+00   .5351972E+00   .5452166E+00   .5561280E+00
   .5679851E+00   .5808547E+00   .5947958E+00   .6098374E+00   .6259645E+00
   .6431177E+00   .6611989E+00   .6800836E+00   .6996391E+00   .7197394E+00
   .7402759E+00   .7611666E+00   .7823600E+00   .8038342E+00   .8255938E+00
   .8476616E+00   .8700536E+00   .8927421E+00   .9156204E+00   .9384800E+00
   .9610148E+00   .9828646E+00   .1003686E+01   .1023222E+01   .1041318E+01
   .1057896E+01   .1072936E+01   .1086450E+01   .1098456E+01   .1108947E+01
   .1117854E+01   .1125019E+01   .1130181E+01   .1132987E+01   .1133023E+01
   .1129872E+01   .1123159E+01   .1112601E+01   .1098073E+01   .1079650E+01
   .1057636E+01   .1032558E+01   .1005102E+01   .9759720E+00   .9457227E+00
   .9146564E+00   .8828578E+00   .8502970E+00   .8169373E+00   .7828498E+00
   .7483182E+00   .7138990E+00   .6803687E+00   .6485114E+00   .6189183E+00
   .5919788E+00   .5679528E+00   .5470198E+00   .5293163E+00   .5149652E+00
   .5040832E+00   .4967601E+00   .4930157E+00   .4927418E+00   .4956479E+00
   .5012418E+00   .5088566E+00   .5177229E+00   .5270849E+00   .5363242E+00
   .5449928E+00   .5527819E+00   .5595144E+00   .5651456E+00   .5697418E+00
   .5734387E+00   .5763996E+00   .5787838E+00   .5807323E+00   .5823565E+00
   .5837231E+00   .5848334E+00   .5856040E+00   .5858523E+00   .5852995E+00
   .5836087E+00   .5804566E+00   .5756238E+00   .5690796E+00   .5610070E+00
   .5517457E+00   .5416972E+00   .5312353E+00   .5206782E+00   .5103155E+00
   .5004327E+00   .4913175E+00   .4832497E+00   .4764729E+00   .4711535E+00
   .4673528E+00   .4650320E+00   .4640744E+00   .4643042E+00   .4655009E+00
   .4674159E+00   .4698006E+00   .4724414E+00   .4751790E+00   .4778975E+00
   .4805044E+00   .4829213E+00   .4850855E+00   .4869626E+00   .4885688E+00
   .4899984E+00   .4914459E+00   .4932123E+00   .4956864E+00   .4992959E+00
   .5044233E+00   .5112960E+00   .5198831E+00   .5298668E+00   .5407167E+00
   .5518127E+00   .5625511E+00   .5723828E+00   .5808224E+00   .5874861E+00
   .5921361E+00   .5946896E+00   .5951920E+00   .5937872E+00   .5906881E+00
   .5861411E+00   .5803862E+00   .5736190E+00   .5659789E+00   .5575699E+00
   .5484875E+00   .5388375E+00   .5287484E+00   .5183725E+00   .5078826E+00
   .4974599E+00   .4872705E+00   .4774417E+00   .4680649E+00   .4592221E+00
   .4510133E+00   .4435730E+00   .4370761E+00   .4317289E+00   .4277439E+00
   .4252974E+00   .4244835E+00   .4252927E+00   .4276194E+00   .4312802E+00
   .4360436E+00   .4416736E+00   .4479825E+00   .4548701E+00   .4623015E+00
   .4702412E+00   .4785974E+00   .4872025E+00   .4958342E+00   .5042639E+00
   .5123137E+00   .5198970E+00   .5270182E+00   .5337490E+00   .5401997E+00
   .5464823E+00   .5526719E+00   .5587845E+00   .5647728E+00   .5705272E+00
   .5758874E+00   .5806689E+00   .5847019E+00   .5878796E+00   .5901950E+00
   .5917346E+00   .5926345E+00   .5930381E+00   .5930757E+00   .5928621E+00
   .5924924E+00   .5920336E+00   .5915135E+00   .5909126E+00   .5901616E+00
   .5891517E+00   .5877580E+00   .5858675E+00   .5834086E+00   .5803679E+00
   .5767926E+00   .5727864E+00   .5684974E+00   .5640954E+00   .5597388E+00
   .5555328E+00   .5514967E+00   .5475651E+00   .5436204E+00   .5395312E+00
   .5351888E+00   .5305231E+00   .5255002E+00   .5201224E+00   .5144252E+00
   .5084707E+00   .5023388E+00   .4961205E+00   .4899151E+00   .4838286E+00
   .4779655E+00   .4724162E+00   .4672409E+00   .4624551E+00   .4580318E+00
   .4539235E+00   .4500927E+00   .4465436E+00   .4433493E+00   .4406703E+00
   .4387477E+00   .4378547E+00   .4382111E+00   .4398830E+00   .4426958E+00
   .4462172E+00   .4498339E+00   .4528854E+00   .4548014E+00   .4551603E+00
   .4536914E+00   .4502890E+00   .4450152E+00   .4380715E+00   .4297537E+00
   .4203995E+00   .4103426E+00   .3998780E+00   .3892261E+00   .3785049E+00
   .3677312E+00   .3568416E+00   .3457131E+00   .3341815E+00   .3220570E+00
   .3091422E+00   .2952606E+00   .2802928E+00   .2642140E+00   .2471102E+00
   .2291579E+00   .2105799E+00   .1915930E+00   .1723619E+00   .1529927E+00
   .1335565E+00   .1141101E+00   .9471293E-01   .7544115E-01   .5639341E-01
   .3768603E-01   .1943551E-01   .1730509E-02  -.1539632E-01  -.3197529E-01
  -.4808711E-01  -.6384526E-01  -.7937179E-01  -.9477125E-01  -.1101193E+00
  -.1254664E+00  -.1408414E+00  -.1562547E+00  -.1716998E+00  -.1871558E+00
  -.2025884E+00  -.2179519E+00  -.2331910E+00  -.2482446E+00  -.2630513E+00
  -.2775529E+00  -.2916901E+00  -.3053932E+00  -.3185789E+00  -.3311527E+00
  -.3430151E+00  -.3540679E+00  -.3642171E+00  -.3733805E+00  -.3815012E+00
  -.3885614E+00  -.3945896E+00  -.3996489E+00  -.4038107E+00  -.4071249E+00
  -.4095876E+00  -.4111175E+00  -.4115569E+00  -.4106992E+00  -.4083338E+00
  -.4043070E+00  -.3985852E+00  -.3912889E+00  -.3826835E+00  -.3731396E+00
  -.3630742E+00  -.3528846E+00  -.3429168E+00  -.3334822E+00  -.3248756E+00
  -.3173756E+00  -.3112259E+00  -.3066085E+00  -.3036256E+00  -.3022994E+00
  -.3025775E+00  -.3043451E+00  -.3074488E+00  -.3117263E+00  -.3170377E+00
  -.3232844E+00  -.3304045E+00  -.3383563E+00  -.3471040E+00  -.3566022E+00
  -.3667802E+00  -.3775258E+00  -.3886798E+00  -.4000409E+00  -.4113830E+00
  -.4224853E+00  -.4331662E+00  -.4432981E+00  -.4528020E+00  -.4616403E+00
  -.4698099E+00  -.4773248E+00  -.4841939E+00  -.4903991E+00  -.4958789E+00
  -.5005194E+00  -.5041568E+00  -.5065957E+00  -.5076432E+00  -.5071593E+00
  -.5051143E+00  -.5016336E+00  -.4970048E+00  -.4916454E+00  -.4860425E+00
  -.4806611E+00  -.4758371E+00  -.4717059E+00  -.4682335E+00  -.4653153E+00
  -.4628559E+00  -.4607920E+00  -.4590741E+00  -.4576478E+00  -.4564367E+00
  -.4553317E+00  -.4541901E+00  -.4528434E+00  -.4511191E+00  -.4488741E+00
  -.4460282E+00  -.4425673E+00  -.4385206E+00  -.4339379E+00  -.4288641E+00
  -.4233154E+00  -.4172677E+00  -.4106542E+00  -.4033714E+00  -.3952909E+00
  -.3862763E+00  -.3762042E+00  -.3649943E+00  -.3526480E+00  -.3392853E+00
  -.3251691E+00  -.3106951E+00  -.2963440E+00  -.2826030E+00  -.2698696E+00
  -.2583782E+00  -.2482116E+00  -.2393616E+00  -.2317730E+00  -.2253605E+00
  -.2200113E+00  -.2155903E+00  -.2119461E+00  -.2089176E+00  -.2063452E+00
  -.2040820E+00  -.2019928E+00  -.1999330E+00  -.1977260E+00  -.1951581E+00
  -.1919931E+00  -.1880071E+00  -.1830389E+00  -.1770369E+00  -.1700775E+00
  -.1623578E+00  -.1541767E+00  -.1458962E+00  -.1378860E+00  -.1304700E+00
  -.1238875E+00  -.1182629E+00  -.1135977E+00  -.1097809E+00  -.1066063E+00
  -.1038027E+00  -.1010789E+00  -.9817700E-01  -.9491225E-01  -.9118998E-01
  -.8701858E-01  -.8252310E-01  -.7795079E-01  -.7366061E-01  -.7008950E-01
  -.6769126E-01  -.6685009E-01  -.6779171E-01  -.7054592E-01  -.7496575E-01
  -.8076517E-01  -.8757247E-01  -.9500379E-01  -.1027413E+00  -.1105743E+00
  -.1183906E+00  -.1261501E+00  -.1338601E+00  -.1415492E+00  -.1492406E+00
  -.1569298E+00  -.1645720E+00  -.1720797E+00  -.1793330E+00  -.1861996E+00
  -.1925643E+00  -.1983583E+00  -.2035725E+00  -.2082462E+00  -.2124440E+00
  -.2162261E+00  -.2196155E+00  -.2225725E+00  -.2249856E+00  -.2266790E+00
  -.2274346E+00  -.2270299E+00  -.2252846E+00  -.2220938E+00  -.2174296E+00
  -.2113273E+00  -.2038726E+00  -.1951897E+00  -.1854395E+00  -.1748325E+00
  -.1636420E+00  -.1522035E+00  -.1408945E+00  -.1300945E+00  -.1201402E+00
  -.1113138E+00  -.1038695E+00  -.9804276E-01  -.9403214E-01  -.9196777E-01
  -.9188625E-01  -.9373358E-01  -.9738750E-01  -.1026797E+00  -.1094160E+00
  -.1173801E+00  -.1263206E+00  -.1359433E+00  -.1459236E+00  -.1559406E+00
  -.1657287E+00  -.1751293E+00  -.1840949E+00  -.1926479E+00  -.2008311E+00
  -.2086646E+00  -.2161214E+00  -.2231319E+00  -.2296093E+00  -.2354754E+00
  -.2406729E+00  -.2451645E+00  -.2489302E+00  -.2519660E+00  -.2542805E+00
  -.2558915E+00  -.2568227E+00  -.2571031E+00  -.2567668E+00  -.2558535E+00
  -.2544121E+00  -.2525096E+00  -.2502461E+00  -.2477695E+00  -.2452822E+00
  -.2430398E+00  -.2413452E+00  -.2405344E+00  -.2409473E+00  -.2428977E+00
  -.2466670E+00  -.2525056E+00  -.2606163E+00  -.2711374E+00  -.2841408E+00
  -.2996392E+00  -.3175839E+00  -.3378575E+00  -.3602682E+00  -.3845461E+00
  -.4103446E+00  -.4372547E+00  -.4648340E+00  -.4926302E+00  -.5201843E+00
  -.5470420E+00  -.5727957E+00  -.5971326E+00  -.6198434E+00  -.6408025E+00
  -.6599616E+00  -.6773491E+00  -.6930622E+00  -.7072352E+00  -.7199748E+00
  -.7312826E+00  -.7410056E+00  -.7488624E+00  -.7545322E+00  -.7577488E+00
  -.7583563E+00  -.7563142E+00  -.7516864E+00  -.7446290E+00  -.7353787E+00
  -.7242427E+00  -.7115808E+00  -.6977750E+00  -.6832066E+00  -.6682347E+00
  -.6531595E+00  -.6381768E+00  -.6233574E+00  -.6086766E+00  -.5940679E+00
  -.5794697E+00  -.5648535E+00  -.5502382E+00  -.5356995E+00  -.5213700E+00
  -.5074265E+00  -.4940638E+00  -.4814605E+00  -.4697494E+00  -.4590068E+00
  -.4492479E+00  -.4404230E+00  -.4324168E+00  -.4250555E+00  -.4181227E+00
  -.4113861E+00  -.4046308E+00  -.3976852E+00  -.3904170E+00  -.3827148E+00
  -.3744764E+00  -.3656061E+00  -.3560151E+00  -.3456229E+00  -.3343394E+00
  -.3220397E+00  -.3085658E+00  -.2937560E+00  -.2774880E+00  -.2597262E+00
  -.2405573E+00  -.2201854E+00  -.1988940E+00  -.1769933E+00  -.1547675E+00
  -.1324573E+00  -.1102757E+00  -.8841966E-01  -.6707131E-01  -.4639851E-01
  -.2655108E-01  -.7644452E-02   .1026858E-01   .2722630E-01   .4336510E-01
   .5889922E-01   .7408275E-01   .8915478E-01   .1042729E+00   .1194579E+00
   .1345821E+00   .1493946E+00   .1635635E+00   .1767426E+00   .1886569E+00
   .1991942E+00   .2084417E+00   .2165741E+00   .2237260E+00   .2299768E+00
   .2353537E+00   .2398301E+00   .2433377E+00   .2457923E+00   .2471345E+00
   .2473740E+00   .2466224E+00   .2450898E+00   .2430447E+00   .2407555E+00
   .2384270E+00   .2361645E+00   .2339823E+00   .2318296E+00   .2296221E+00
   .2272832E+00   .2247873E+00   .2221922E+00   .2196417E+00   .2173411E+00
   .2155166E+00   .2143670E+00   .2140295E+00   .2145786E+00   .2160411E+00
   .2184077E+00   .2216435E+00   .2256937E+00   .2304746E+00   .2358526E+00
   .2416255E+00   .2475142E+00   .2531722E+00   .2582163E+00   .2622796E+00
   .2650652E+00   .2663775E+00   .2661214E+00   .2642906E+00   .2609597E+00
   .2562788E+00   .2504622E+00   .2437709E+00   .2364883E+00   .2288999E+00
   .2212937E+00   .2139644E+00   .2071985E+00   .2012419E+00   .1962679E+00
   .1923821E+00   .1896621E+00   .1881935E+00   .1880904E+00   .1894986E+00
   .1925636E+00   .1973603E+00   .2038071E+00   .2116115E+00   .2202890E+00
   .2292456E+00   .2378930E+00   .2457673E+00   .2525727E+00   .2581483E+00
   .2624271E+00   .2653968E+00   .2670582E+00   .2673838E+00   .2662807E+00
   .2635670E+00   .2589706E+00   .2521590E+00   .2428009E+00   .2306564E+00
   .2156787E+00   .1980875E+00   .1783806E+00   .1572874E+00   .1356737E+00
   .1143960E+00   .9415174E-01   .7543238E-01   .5855353E-01   .4366271E-01
   .3073984E-01   .1961472E-01   .1000603E-01   .1576124E-02  -.6002754E-02
  -.1297719E-01  -.1946049E-01  -.2541969E-01  -.3068773E-01  -.3498776E-01
  -.3797689E-01  -.3931236E-01  -.3873366E-01  -.3613669E-01  -.3160680E-01
  -.2541743E-01  -.1801163E-01  -.9957457E-02  -.1875503E-02   .5637286E-02
   .1205270E-01   .1694605E-01   .2005202E-01   .2130651E-01   .2080672E-01
   .1870932E-01   .1513514E-01   .1010544E-01   .3540045E-02  -.4694960E-02
  -.1472146E-01  -.2656982E-01  -.4010007E-01  -.5496495E-01  -.7069192E-01
  -.8685290E-01  -.1031239E+00  -.1192360E+00  -.1349509E+00  -.1500531E+00
  -.1643490E+00  -.1776754E+00  -.1899124E+00  -.2009885E+00  -.2108644E+00
  -.2195110E+00  -.2268948E+00  -.2329693E+00  -.2376737E+00  -.2409367E+00
  -.2426897E+00  -.2428852E+00  -.2415215E+00  -.2386670E+00  -.2344757E+00
  -.2291858E+00  -.2231007E+00  -.2165518E+00  -.2098515E+00  -.2032631E+00
  -.1969965E+00  -.1912044E+00  -.1859727E+00  -.1813217E+00  -.1772204E+00
  -.1736005E+00  -.1703713E+00  -.1674352E+00  -.1647020E+00  -.1620952E+00
  -.1595449E+00  -.1569762E+00  -.1543038E+00  -.1514321E+00  -.1482634E+00
  -.1447114E+00  -.1407123E+00  -.1362233E+00  -.1312130E+00  -.1256553E+00
  -.1195254E+00  -.1127970E+00  -.1054427E+00  -.9743678E-01  -.8876161E-01
  -.7941657E-01  -.6942633E-01  -.5884454E-01  -.4774998E-01  -.3623680E-01
  -.2440019E-01  -.1232014E-01  -.5339101E-04   .1235372E-01   .2483990E-01
   .3730681E-01   .4960301E-01   .6151814E-01   .7279221E-01   .8314270E-01
   .9230468E-01   .1000636E+00   .1062653E+00   .1108164E+00   .1136852E+00
   .1148847E+00   .1144427E+00   .1123729E+00   .1086565E+00   .1032352E+00
   .9601620E-01   .8688721E-01   .7574340E-01   .6252243E-01   .4723721E-01
   .2999205E-01   .1098226E-01  -.9517879E-02  -.3118020E-01  -.5365266E-01
  -.7658676E-01  -.9967162E-01  -.1226693E+00  -.1454131E+00  -.1677790E+00
  -.1896704E+00  -.2110131E+00  -.2317587E+00  -.2518956E+00  -.2714573E+00
  -.2905269E+00  -.3092356E+00  -.3277528E+00  -.3462652E+00  -.3649433E+00
  -.3839045E+00  -.4031966E+00  -.4227970E+00  -.4426120E+00  -.4624816E+00
  -.4821952E+00  -.5015213E+00  -.5202484E+00  -.5382274E+00  -.5553875E+00
  -.5717248E+00  -.5872863E+00  -.6021520E+00  -.6164131E+00  -.6301500E+00
  -.6434193E+00  -.6562550E+00  -.6686791E+00  -.6807118E+00  -.6923809E+00
  -.7037294E+00  -.7148179E+00  -.7257205E+00  -.7365131E+00  -.7472586E+00
  -.7579940E+00  -.7687275E+00  -.7794362E+00  -.7900673E+00  -.8005428E+00
  -.8107704E+00  -.8206594E+00  -.8301371E+00  -.8391575E+00  -.8477059E+00
  -.8558058E+00  -.8635250E+00  -.8709778E+00  -.8783209E+00  -.8857403E+00
  -.8934263E+00  -.9015400E+00  -.9101852E+00  -.9194039E+00  -.9291867E+00
  -.9394821E+00  -.9502083E+00  -.9612678E+00  -.9725661E+00  -.9840265E+00
  -.9955893E+00  -.1007201E+01  -.1018804E+01  -.1030337E+01  -.1041729E+01
  -.1052909E+01  -.1063813E+01  -.1074389E+01  -.1084592E+01  -.1094401E+01
  -.1103822E+01  -.1112898E+01  -.1121712E+01  -.1130384E+01  -.1139048E+01
  -.1147824E+01  -.1156775E+01  -.1165871E+01  -.1174964E+01  -.1183801E+01
  -.1192064E+01  -.1199433E+01  -.1205651E+01  -.1210561E+01  -.1214104E+01
  -.1216297E+01  -.1217221E+01  -.1216988E+01  -.1215722E+01  -.1213535E+01
  -.1210522E+01  -.1206778E+01  -.1202411E+01  -.1197549E+01  -.1192336E+01
  -.1186926E+01  -.1181459E+01  -.1176058E+01  -.1170824E+01  -.1165845E+01
  -.1161200E+01  -.1156949E+01  -.1153135E+01  -.1149787E+01  -.1146911E+01
  -.1144486E+01  -.1142459E+01  -.1140739E+01  -.1139206E+01  -.1137719E+01
  -.1136139E+01  -.1134346E+01  -.1132247E+01  -.1129771E+01  -.1126851E+01
  -.1123422E+01  -.1119408E+01  -.1114718E+01  -.1109235E+01  -.1102833E+01
  -.1095397E+01  -.1086853E+01  -.1077209E+01  -.1066567E+01  -.1055128E+01
  -.1043174E+01  -.1031043E+01  -.1019088E+01  -.1007650E+01  -.9970374E+00
  -.9874859E+00  -.9791186E+00  -.9719345E+00  -.9658156E+00  -.9605394E+00
  -.9558022E+00  -.9512616E+00  -.9465951E+00  -.9415646E+00  -.9360482E+00
  -.9300298E+00  -.9235726E+00  -.9167907E+00  -.9098153E+00  -.9027617E+00
  -.8957089E+00  -.8887006E+00  -.8817518E+00  -.8748590E+00  -.8680108E+00
  -.8611991E+00  -.8544282E+00  -.8477198E+00  -.8411123E+00  -.8346538E+00
  -.8283889E+00  -.8223421E+00  -.8164999E+00  -.8107940E+00  -.8050895E+00
  -.7991833E+00  -.7928183E+00  -.7857151E+00  -.7776215E+00  -.7683639E+00
  -.7578681E+00  -.7461469E+00  -.7332804E+00  -.7193930E+00  -.7046252E+00
  -.6891047E+00  -.6729346E+00  -.6561991E+00  -.6389693E+00  -.6213071E+00
  -.6032691E+00  -.5849119E+00  -.5663022E+00  -.5475239E+00  -.5286767E+00
  -.5098667E+00  -.4911904E+00  -.4727215E+00  -.4545113E+00  -.4365970E+00
  -.4190062E+00  -.4017597E+00  -.3848733E+00  -.3683568E+00  -.3522124E+00
  -.3364334E+00  -.3210045E+00  -.3059051E+00  -.2911160E+00  -.2766277E+00
  -.2624516E+00  -.2486319E+00  -.2352572E+00  -.2224687E+00  -.2104603E+00
  -.1994631E+00  -.1897122E+00  -.1813978E+00  -.1746139E+00  -.1693364E+00
  -.1654265E+00  -.1626430E+00  -.1606684E+00  -.1591557E+00  -.1577881E+00
  -.1563273E+00  -.1546162E+00  -.1525546E+00  -.1500824E+00  -.1471675E+00
  -.1437968E+00  -.1399707E+00  -.1356968E+00  -.1309855E+00  -.1258481E+00
  -.1202985E+00  -.1143565E+00  -.1080522E+00  -.1014306E+00  -.9456287E-01
  -.8755860E-01  -.8057131E-01  -.7379286E-01  -.6743468E-01  -.6169656E-01
  -.5673304E-01  -.5264266E-01  -.4947997E-01  -.4726796E-01  -.4600752E-01
  -.4568596E-01  -.4628404E-01  -.4778004E-01  -.5014924E-01  -.5335857E-01
  -.5735950E-01  -.6208155E-01  -.6742872E-01  -.7328034E-01  -.7949609E-01
  -.8591748E-01  -.9235588E-01  -.9857948E-01  -.1043178E+00  -.1092859E+00
  -.1132259E+00  -.1159545E+00  -.1173812E+00  -.1174989E+00  -.1163698E+00
  -.1141115E+00  -.1108753E+00  -.1068205E+00  -.1020884E+00  -.9679754E-01
  -.9105508E-01  -.8496762E-01  -.7864432E-01  -.7219333E-01  -.6571198E-01
  -.5927783E-01  -.5295107E-01  -.4678196E-01  -.4081286E-01  -.3507724E-01
  -.2959944E-01  -.2439887E-01  -.1949649E-01  -.1491958E-01  -.1070490E-01
  -.6899642E-02  -.3559639E-02   .5527650E-03   .5377778E-02   .9554886E-02
   .1300905E-01   .1564828E-01   .1736639E-01   .1805412E-01   .1761853E-01
   .1600613E-01   .1321817E-01   .9315324E-02   .4417266E-02  -.1305355E-02
  -.7650527E-02  -.1441696E-01  -.2144396E-01  -.2864218E-01  -.3599284E-01
  -.4352547E-01  -.5129428E-01  -.5935305E-01  -.6773276E-01  -.7643076E-01
  -.8541039E-01  -.9460658E-01  -.1039390E+00  -.1133322E+00  -.1227405E+00
  -.1321691E+00  -.1416835E+00  -.1514062E+00  -.1614998E+00  -.1721362E+00
  -.1834517E+00  -.1954939E+00  -.2081758E+00  -.2212596E+00  -.2343708E+00
  -.2470408E+00  -.2587833E+00  -.2691998E+00  -.2780880E+00  -.2854887E+00
  -.2916458E+00  -.2969225E+00  -.3016981E+00  -.3062669E+00  -.3107926E+00
  -.3153126E+00  -.3197426E+00  -.3238933E+00  -.3275051E+00  -.3302999E+00
  -.3320447E+00  -.3326075E+00  -.3319633E+00  -.3301638E+00  -.3273043E+00
  -.3234993E+00  -.3188751E+00  -.3135719E+00  -.3077420E+00  -.3015415E+00
  -.2951176E+00  -.2885904E+00  -.2820395E+00  -.2755081E+00  -.2690169E+00
  -.2625730E+00  -.2561762E+00  -.2498231E+00  -.2435102E+00  -.2372349E+00
  -.2309968E+00  -.2247967E+00  -.2186371E+00  -.2125209E+00  -.2064515E+00
  -.2004319E+00  -.1944632E+00  -.1885424E+00  -.1826605E+00  -.1767978E+00
  -.1709187E+00  -.1649663E+00  -.1588583E+00  -.1524858E+00  -.1457107E+00
  -.1383668E+00  -.1302709E+00  -.1212445E+00  -.1111421E+00  -.9986730E-01
  -.8736399E-01  -.7359861E-01  -.5854787E-01  -.4219135E-01  -.2450949E-01
  -.5489088E-02   .1486414E-01   .3650860E-01   .5934904E-01   .8322289E-01
   .1078969E+00   .1330799E+00   .1584548E+00   .1837257E+00   .2086647E+00
   .2331141E+00   .2569586E+00   .2801063E+00   .3024752E+00   .3239828E+00
   .3445303E+00   .3639853E+00   .3821755E+00   .3989032E+00   .4139804E+00
   .4272864E+00   .4388351E+00   .4488358E+00   .4577070E+00   .4659811E+00
   .4741239E+00   .4823759E+00   .4907262E+00   .4990409E+00   .5072192E+00
   .5152538E+00   .5232050E+00   .5311602E+00   .5391960E+00   .5473618E+00
   .5556937E+00   .5642327E+00   .5730304E+00   .5821450E+00   .5916354E+00
   .6015519E+00   .6119235E+00   .6227452E+00   .6339735E+00   .6455300E+00
   .6573077E+00   .6691817E+00   .6810219E+00   .6927008E+00   .7040882E+00
   .7150453E+00   .7254272E+00   .7350929E+00   .7439205E+00   .7518147E+00
   .7586924E+00   .7644580E+00   .7689881E+00   .7721271E+00   .7736910E+00
   .7734772E+00   .7712830E+00   .7669451E+00   .7603915E+00   .7516852E+00
   .7410339E+00   .7287753E+00   .7153632E+00   .7013472E+00   .6873248E+00
   .6738631E+00   .6614183E+00   .6503213E+00   .6408064E+00   .6330186E+00
   .6270124E+00   .6227610E+00   .6201747E+00   .6191131E+00   .6193978E+00
   .6208254E+00   .6231760E+00   .6262209E+00   .6297386E+00   .6335462E+00
   .6375357E+00   .6416931E+00   .6460937E+00   .6508827E+00   .6562457E+00
   .6623652E+00   .6693645E+00   .6772462E+00   .6858471E+00   .6948472E+00
   .7038364E+00   .7123994E+00   .7201822E+00   .7269169E+00   .7324334E+00
   .7366813E+00   .7397445E+00   .7418228E+00   .7431809E+00   .7440852E+00
   .7447492E+00   .7453194E+00   .7458919E+00   .7465246E+00   .7472459E+00
   .7480639E+00   .7489738E+00   .7499677E+00   .7510446E+00   .7522149E+00
   .7535016E+00   .7549370E+00   .7565570E+00   .7583932E+00   .7604658E+00
   .7627793E+00   .7653207E+00   .7680579E+00   .7709409E+00   .7739062E+00
   .7768846E+00   .7798133E+00   .7826468E+00   .7853623E+00   .7879591E+00
   .7904584E+00   .7929035E+00   .7953560E+00   .7978901E+00   .8005828E+00
   .8035016E+00   .8066948E+00   .8101947E+00   .8140306E+00   .8182370E+00
   .8228583E+00   .8279480E+00   .8335617E+00   .8397440E+00   .8465140E+00
   .8538539E+00   .8617021E+00   .8699476E+00   .8784301E+00   .8869499E+00
   .8952892E+00   .9032412E+00   .9106340E+00   .9173300E+00   .9232143E+00
   .9281941E+00   .9322053E+00   .9352225E+00   .9372623E+00   .9383786E+00
   .9386535E+00   .9381875E+00   .9370856E+00   .9354413E+00   .9333248E+00
   .9307829E+00   .9278471E+00   .9245381E+00   .9208704E+00   .9168550E+00
   .9125017E+00   .9078220E+00   .9028323E+00   .8975580E+00   .8920352E+00
   .8863112E+00   .8804411E+00   .8744829E+00   .8684896E+00   .8625022E+00
   .8565500E+00   .8506578E+00   .8448521E+00   .8391649E+00   .8336339E+00
   .8282995E+00   .8231980E+00   .8183532E+00   .8137720E+00   .8094428E+00
   .8053335E+00   .8013910E+00   .7975431E+00   .7937052E+00   .7897912E+00
   .7857274E+00   .7814632E+00   .7769700E+00   .7722349E+00   .7672555E+00
   .7620361E+00   .7565847E+00   .7509109E+00   .7450243E+00   .7389344E+00
   .7326498E+00   .7261793E+00   .7195312E+00   .7127130E+00   .7057308E+00
   .6985874E+00   .6912814E+00   .6838056E+00   .6761469E+00   .6682875E+00
   .6602081E+00   .6518926E+00   .6433332E+00   .6345328E+00   .6255054E+00
   .6162763E+00   .6068816E+00   .5973660E+00   .5877781E+00   .5781646E+00
   .5685627E+00   .5589977E+00   .5494848E+00   .5400316E+00   .5306402E+00
   .5213085E+00   .5120316E+00   .5028027E+00   .4936143E+00   .4844590E+00
   .4753308E+00   .4662262E+00   .4571449E+00   .4480897E+00   .4390647E+00
   .4300745E+00   .4211227E+00   .4122105E+00   .4033350E+00   .3944889E+00
   .3856595E+00   .3768299E+00   .3679812E+00   .3590955E+00   .3501597E+00
   .3411664E+00   .3321134E+00   .3230033E+00   .3138437E+00   .3046477E+00
   .2954348E+00   .2862307E+00   .2770657E+00   .2679733E+00   .2589854E+00
   .2501284E+00   .2414202E+00   .2328709E+00   .2244847E+00   .2162610E+00
   .2081948E+00   .2002771E+00   .1924958E+00   .1848363E+00   .1772831E+00
   .1698218E+00   .1624418E+00   .1551381E+00   .1479109E+00   .1407646E+00
   .1337061E+00   .1267442E+00   .1198879E+00   .1131452E+00   .1065228E+00
   .1000270E+00   .9366453E-01   .8744223E-01   .8136696E-01   .7544440E-01
   .6967791E-01   .6406814E-01   .5861352E-01   .5331051E-01   .4815374E-01
   .4313614E-01   .3824930E-01   .3348402E-01   .2883116E-01   .2428270E-01
   .1983267E-01   .1547719E-01   .1121374E-01   .7040489E-02   .2955837E-02
  -.1041821E-02  -.4954152E-02  -.8782691E-02  -.1252843E-01  -.1619127E-01
  -.1976948E-01  -.2325926E-01  -.2665469E-01  -.2994812E-01  -.3313122E-01
  -.3619648E-01  -.3913895E-01  -.4195714E-01  -.4465245E-01  -.4722821E-01
  -.4968888E-01  -.5203958E-01  -.5428559E-01  -.5643219E-01  -.5848456E-01
  -.6044806E-01  -.6232852E-01  -.6413248E-01  -.6586728E-01  -.6754081E-01
  -.6916109E-01  -.7073545E-01  -.7226992E-01  -.7376954E-01  -.7523928E-01
  -.7668456E-01  -.7811124E-01  -.7952497E-01  -.8093010E-01  -.8232826E-01
  -.8371732E-01  -.8509206E-01  -.8644584E-01  -.8777209E-01  -.8906505E-01
  -.9032010E-01  -.9153359E-01  -.9270278E-01  -.9382562E-01  -.9490054E-01
  -.9592608E-01  -.9690060E-01  -.9782193E-01  -.9868705E-01  -.9949186E-01
  -.1002313E+00  -.1008997E+00  -.1014915E+00  -.1020025E+00  -.1024303E+00
  -.1027749E+00  -.1030382E+00  -.1032232E+00  -.1033337E+00  -.1033738E+00
  -.1033477E+00  -.1032594E+00  -.1031127E+00  -.1029106E+00  -.1026559E+00
  -.1023509E+00  -.1019979E+00  -.1015988E+00  -.1011556E+00  -.1006697E+00
  -.1001426E+00  -.9957494E-01  -.9896759E-01  -.9832102E-01  -.9763568E-01
  -.9691194E-01  -.9615015E-01  -.9535070E-01  -.9451399E-01  -.9364047E-01
  -.9273062E-01  -.9178495E-01  -.9080395E-01  -.8978809E-01  -.8873779E-01
  -.8765341E-01  -.8653527E-01  -.8538364E-01  -.8419881E-01  -.8298109E-01
  -.8173077E-01  -.8044821E-01  -.7913373E-01  -.7778772E-01  -.7641055E-01
  -.7500258E-01  -.7356421E-01  -.7209582E-01  -.7059780E-01  -.6907058E-01
  -.6751457E-01  -.6593024E-01  -.6431804E-01  -.6267847E-01  -.6101203E-01
  -.5931922E-01  -.5760056E-01  -.5585659E-01  -.5408783E-01  -.5229484E-01
  -.5047816E-01  -.4863835E-01  -.4677597E-01  -.4489158E-01  -.4298578E-01
  -.4105915E-01  -.3911227E-01  -.3714575E-01  -.3516019E-01  -.3315619E-01
  -.3113435E-01  -.2909527E-01  -.2703955E-01  -.2496780E-01  -.2288062E-01
  -.2077862E-01  -.1866242E-01  -.1653263E-01  -.1438987E-01  -.1223475E-01
  -.1006790E-01  -.7889936E-02  -.5701480E-02  -.3503155E-02  -.1295581E-02
