PEER NGA STRONG MOTION DATABASE RECORD
San Fernando, 2/9/1971, Buena Vista - Taft, 90
DISPLACEMENT TIME SERIES IN UNITS OF CM
NPTS=   5330, DT=   .0050 SEC,                                             
   .0000000E+00   .8573060E-05   .3425353E-04   .7701024E-04   .1369110E-03
   .2141311E-03   .3089521E-03   .4217537E-03   .5529969E-03   .7032029E-03
   .8729297E-03   .1062752E-02   .1273246E-02   .1504985E-02   .1758546E-02
   .2034522E-02   .2333546E-02   .2656290E-02   .3003444E-02   .3375678E-02
   .3773578E-02   .4197568E-02   .4647821E-02   .5124160E-02   .5625966E-02
   .6152099E-02   .6700845E-02   .7269901E-02   .7856372E-02   .8456776E-02
   .9067071E-02   .9682718E-02   .1029877E-01   .1091003E-01   .1151114E-01
   .1209681E-01   .1266187E-01   .1320137E-01   .1371054E-01   .1418472E-01
   .1461932E-01   .1500970E-01   .1535100E-01   .1563801E-01   .1586507E-01
   .1602598E-01   .1611392E-01   .1612153E-01   .1604096E-01   .1586414E-01
   .1558315E-01   .1519084E-01   .1468163E-01   .1405240E-01   .1330332E-01
   .1243850E-01   .1146624E-01   .1039867E-01   .9250957E-02   .8040078E-02
   .6783718E-02   .5499378E-02   .4203789E-02   .2912621E-02   .1640337E-02
   .3999892E-03  -.7970819E-03  -.1941552E-02  -.3026327E-02  -.4046606E-02
  -.4999762E-02  -.5885069E-02  -.6703392E-02  -.7456894E-02  -.8148720E-02
  -.8782719E-02  -.9363260E-02  -.9895125E-02  -.1038340E-01  -.1083334E-01
  -.1125011E-01  -.1163853E-01  -.1200267E-01  -.1234550E-01  -.1266858E-01
  -.1297195E-01  -.1325419E-01  -.1351284E-01  -.1374507E-01  -.1394852E-01
  -.1412223E-01  -.1426745E-01  -.1438833E-01  -.1449218E-01  -.1458950E-01
  -.1469370E-01  -.1482104E-01  -.1499047E-01  -.1522354E-01  -.1554412E-01
  -.1597790E-01  -.1655197E-01  -.1729397E-01  -.1823119E-01  -.1938935E-01
  -.2079163E-01  -.2245777E-01  -.2440336E-01  -.2663943E-01  -.2917199E-01
  -.3200171E-01  -.3512363E-01  -.3852714E-01  -.4219590E-01  -.4610777E-01
  -.5023487E-01  -.5454402E-01  -.5899753E-01  -.6355447E-01  -.6817249E-01
  -.7280962E-01  -.7742606E-01  -.8198568E-01  -.8645723E-01  -.9081497E-01
  -.9503882E-01  -.9911413E-01  -.1030312E+00  -.1067847E+00  -.1103732E+00
  -.1137986E+00  -.1170659E+00  -.1201826E+00  -.1231579E+00  -.1260026E+00
  -.1287274E+00  -.1313428E+00  -.1338585E+00  -.1362828E+00  -.1386234E+00
  -.1408877E+00  -.1430839E+00  -.1452215E+00  -.1473123E+00  -.1493706E+00
  -.1514133E+00  -.1534593E+00  -.1555292E+00  -.1576443E+00  -.1598261E+00
  -.1620946E+00  -.1644678E+00  -.1669600E+00  -.1695814E+00  -.1723377E+00
  -.1752304E+00  -.1782579E+00  -.1814166E+00  -.1847018E+00  -.1881083E+00
  -.1916301E+00  -.1952614E+00  -.1989960E+00  -.2028277E+00  -.2067504E+00
  -.2107577E+00  -.2148434E+00  -.2190016E+00  -.2232263E+00  -.2275122E+00
  -.2318541E+00  -.2362471E+00  -.2406863E+00  -.2451669E+00  -.2496836E+00
  -.2542312E+00  -.2588042E+00  -.2633970E+00  -.2680046E+00  -.2726224E+00
  -.2772466E+00  -.2818749E+00  -.2865064E+00  -.2911419E+00  -.2957837E+00
  -.3004350E+00  -.3051001E+00  -.3097829E+00  -.3144866E+00  -.3192127E+00
  -.3239597E+00  -.3287224E+00  -.3334921E+00  -.3382558E+00  -.3429971E+00
  -.3476971E+00  -.3523351E+00  -.3568897E+00  -.3613401E+00  -.3656661E+00
  -.3698492E+00  -.3738729E+00  -.3777233E+00  -.3813895E+00  -.3848638E+00
  -.3881419E+00  -.3912232E+00  -.3941097E+00  -.3968053E+00  -.3993154E+00
  -.4016455E+00  -.4038016E+00  -.4057900E+00  -.4076172E+00  -.4092903E+00
  -.4108167E+00  -.4122038E+00  -.4134588E+00  -.4145884E+00  -.4155988E+00
  -.4164958E+00  -.4172851E+00  -.4179721E+00  -.4185623E+00  -.4190609E+00
  -.4194722E+00  -.4198004E+00  -.4200487E+00  -.4202201E+00  -.4203179E+00
  -.4203460E+00  -.4203098E+00  -.4202172E+00  -.4200787E+00  -.4199085E+00
  -.4197236E+00  -.4195435E+00  -.4193884E+00  -.4192775E+00  -.4192277E+00
  -.4192535E+00  -.4193667E+00  -.4195768E+00  -.4198915E+00  -.4203174E+00
  -.4208593E+00  -.4215213E+00  -.4223063E+00  -.4232161E+00  -.4242512E+00
  -.4254109E+00  -.4266931E+00  -.4280934E+00  -.4296053E+00  -.4312194E+00
  -.4329234E+00  -.4347021E+00  -.4365369E+00  -.4384071E+00  -.4402897E+00
  -.4421615E+00  -.4440004E+00  -.4457866E+00  -.4475046E+00  -.4491446E+00
  -.4507022E+00  -.4521790E+00  -.4535816E+00  -.4549207E+00  -.4562090E+00
  -.4574601E+00  -.4586863E+00  -.4598976E+00  -.4611005E+00  -.4622977E+00
  -.4634881E+00  -.4646666E+00  -.4658255E+00  -.4669558E+00  -.4680479E+00
  -.4690932E+00  -.4700839E+00  -.4710132E+00  -.4718748E+00  -.4726625E+00
  -.4733697E+00  -.4739893E+00  -.4745136E+00  -.4749343E+00  -.4752427E+00
  -.4754305E+00  -.4754895E+00  -.4754127E+00  -.4751943E+00  -.4748307E+00
  -.4743206E+00  -.4736666E+00  -.4728754E+00  -.4719583E+00  -.4709319E+00
  -.4698176E+00  -.4686411E+00  -.4674315E+00  -.4662199E+00  -.4650378E+00
  -.4639157E+00  -.4628824E+00  -.4619638E+00  -.4611830E+00  -.4605592E+00
  -.4601079E+00  -.4598398E+00  -.4597615E+00  -.4598752E+00  -.4601792E+00
  -.4606682E+00  -.4613335E+00  -.4621631E+00  -.4631421E+00  -.4642526E+00
  -.4654747E+00  -.4667868E+00  -.4681670E+00  -.4695933E+00  -.4710445E+00
  -.4725010E+00  -.4739448E+00  -.4753596E+00  -.4767304E+00  -.4780436E+00
  -.4792866E+00  -.4804482E+00  -.4815185E+00  -.4824892E+00  -.4833544E+00
  -.4841107E+00  -.4847576E+00  -.4852975E+00  -.4857347E+00  -.4860751E+00
  -.4863244E+00  -.4864877E+00  -.4865683E+00  -.4865672E+00  -.4864824E+00
  -.4863081E+00  -.4860349E+00  -.4856497E+00  -.4851364E+00  -.4844770E+00
  -.4836529E+00  -.4826462E+00  -.4814409E+00  -.4800240E+00  -.4783866E+00
  -.4765248E+00  -.4744398E+00  -.4721380E+00  -.4696311E+00  -.4669351E+00
  -.4640694E+00  -.4610563E+00  -.4579202E+00  -.4546868E+00  -.4513820E+00
  -.4480308E+00  -.4446562E+00  -.4412780E+00  -.4379114E+00  -.4345673E+00
  -.4312517E+00  -.4279670E+00  -.4247125E+00  -.4214854E+00  -.4182815E+00
  -.4150966E+00  -.4119273E+00  -.4087716E+00  -.4056293E+00  -.4025023E+00
  -.3993945E+00  -.3963120E+00  -.3932626E+00  -.3902559E+00  -.3873023E+00
  -.3844129E+00  -.3815989E+00  -.3788717E+00  -.3762423E+00  -.3737215E+00
  -.3713190E+00  -.3690434E+00  -.3669010E+00  -.3648956E+00  -.3630274E+00
  -.3612930E+00  -.3596854E+00  -.3581941E+00  -.3568060E+00  -.3555064E+00
  -.3542786E+00  -.3531053E+00  -.3519689E+00  -.3508517E+00  -.3497368E+00
  -.3486080E+00  -.3474501E+00  -.3462488E+00  -.3449908E+00  -.3436642E+00
  -.3422586E+00  -.3407660E+00  -.3391813E+00  -.3375027E+00  -.3357327E+00
  -.3338779E+00  -.3319490E+00  -.3299609E+00  -.3279319E+00  -.3258836E+00
  -.3238395E+00  -.3218237E+00  -.3198592E+00  -.3179664E+00  -.3161625E+00
  -.3144600E+00  -.3128669E+00  -.3113859E+00  -.3100145E+00  -.3087461E+00
  -.3075712E+00  -.3064788E+00  -.3054582E+00  -.3044996E+00  -.3035954E+00
  -.3027397E+00  -.3019288E+00  -.3011605E+00  -.3004334E+00  -.2997460E+00
  -.2990966E+00  -.2984828E+00  -.2979019E+00  -.2973511E+00  -.2968277E+00
  -.2963292E+00  -.2958540E+00  -.2954008E+00  -.2949684E+00  -.2945561E+00
  -.2941628E+00  -.2937870E+00  -.2934266E+00  -.2930789E+00  -.2927404E+00
  -.2924072E+00  -.2920746E+00  -.2917373E+00  -.2913895E+00  -.2910250E+00
  -.2906373E+00  -.2902192E+00  -.2897636E+00  -.2892627E+00  -.2887084E+00
  -.2880921E+00  -.2874047E+00  -.2866370E+00  -.2857800E+00  -.2848250E+00
  -.2837641E+00  -.2825913E+00  -.2813022E+00  -.2798952E+00  -.2783717E+00
  -.2767369E+00  -.2749997E+00  -.2731727E+00  -.2712717E+00  -.2693148E+00
  -.2673221E+00  -.2653145E+00  -.2633135E+00  -.2613403E+00  -.2594153E+00
  -.2575577E+00  -.2557847E+00  -.2541113E+00  -.2525500E+00  -.2511099E+00
  -.2497973E+00  -.2486153E+00  -.2475641E+00  -.2466417E+00  -.2458442E+00
  -.2451670E+00  -.2446047E+00  -.2441521E+00  -.2438042E+00  -.2435569E+00
  -.2434071E+00  -.2433528E+00  -.2433931E+00  -.2435278E+00  -.2437568E+00
  -.2440793E+00  -.2444935E+00  -.2449961E+00  -.2455816E+00  -.2462424E+00
  -.2469684E+00  -.2477474E+00  -.2485648E+00  -.2494046E+00  -.2502497E+00
  -.2510827E+00  -.2518858E+00  -.2526414E+00  -.2533315E+00  -.2539381E+00
  -.2544434E+00  -.2548299E+00  -.2550810E+00  -.2551816E+00  -.2551181E+00
  -.2548787E+00  -.2544535E+00  -.2538346E+00  -.2530158E+00  -.2519932E+00
  -.2507653E+00  -.2493331E+00  -.2477003E+00  -.2458730E+00  -.2438598E+00
  -.2416718E+00  -.2393216E+00  -.2368236E+00  -.2341929E+00  -.2314452E+00
  -.2285953E+00  -.2256581E+00  -.2226479E+00  -.2195792E+00  -.2164670E+00
  -.2133271E+00  -.2101761E+00  -.2070310E+00  -.2039089E+00  -.2008266E+00
  -.1978002E+00  -.1948445E+00  -.1919728E+00  -.1891965E+00  -.1865245E+00
  -.1839629E+00  -.1815154E+00  -.1791828E+00  -.1769635E+00  -.1748540E+00
  -.1728496E+00  -.1709452E+00  -.1691357E+00  -.1674161E+00  -.1657821E+00
  -.1642294E+00  -.1627543E+00  -.1613530E+00  -.1600218E+00  -.1587568E+00
  -.1575539E+00  -.1564088E+00  -.1553173E+00  -.1542754E+00  -.1532798E+00
  -.1523282E+00  -.1514198E+00  -.1505558E+00  -.1497395E+00  -.1489763E+00
  -.1482738E+00  -.1476409E+00  -.1470876E+00  -.1466234E+00  -.1462574E+00
  -.1459968E+00  -.1458461E+00  -.1458071E+00  -.1458775E+00  -.1460515E+00
  -.1463195E+00  -.1466695E+00  -.1470873E+00  -.1475582E+00  -.1480672E+00
  -.1485988E+00  -.1491375E+00  -.1496676E+00  -.1501725E+00  -.1506352E+00
  -.1510380E+00  -.1513625E+00  -.1515902E+00  -.1517022E+00  -.1516796E+00
  -.1515034E+00  -.1511549E+00  -.1506161E+00  -.1498707E+00  -.1489052E+00
  -.1477099E+00  -.1462805E+00  -.1446177E+00  -.1427272E+00  -.1406186E+00
  -.1383039E+00  -.1357972E+00  -.1331135E+00  -.1302690E+00  -.1272804E+00
  -.1241647E+00  -.1209391E+00  -.1176213E+00  -.1142291E+00  -.1107809E+00
  -.1072955E+00  -.1037926E+00  -.1002924E+00  -.9681610E-01  -.9338521E-01
  -.9002116E-01  -.8674435E-01  -.8357319E-01  -.8052304E-01  -.7760563E-01
  -.7482906E-01  -.7219835E-01  -.6971610E-01  -.6738288E-01  -.6519727E-01
  -.6315588E-01  -.6125331E-01  -.5948216E-01  -.5783330E-01  -.5629621E-01
  -.5485958E-01  -.5351179E-01  -.5224145E-01  -.5103784E-01  -.4989126E-01
  -.4879314E-01  -.4773594E-01  -.4671285E-01  -.4571737E-01  -.4474291E-01
  -.4378265E-01  -.4282952E-01  -.4187640E-01  -.4091633E-01  -.3994277E-01
  -.3894972E-01  -.3793185E-01  -.3688451E-01  -.3580374E-01  -.3468621E-01
  -.3352915E-01  -.3233033E-01  -.3108784E-01  -.2979988E-01  -.2846459E-01
  -.2707980E-01  -.2564284E-01  -.2415041E-01  -.2259850E-01  -.2098231E-01
  -.1929634E-01  -.1753447E-01  -.1569011E-01  -.1375651E-01  -.1172715E-01
  -.9596244E-02  -.7359297E-02  -.5013606E-02  -.2558739E-02   .3147685E-05
   .2667185E-02   .5425925E-02   .8269697E-02   .1118704E-01   .1416507E-01
   .1718980E-01   .2024658E-01   .2332063E-01   .2639767E-01   .2946445E-01
   .3250909E-01   .3552135E-01   .3849259E-01   .4141572E-01   .4428506E-01
   .4709616E-01   .4984561E-01   .5253060E-01   .5514846E-01   .5769615E-01
   .6017005E-01   .6256597E-01   .6487937E-01   .6710571E-01   .6924077E-01
   .7128100E-01   .7322382E-01   .7506789E-01   .7681340E-01   .7846230E-01
   .8001862E-01   .8148877E-01   .8288180E-01   .8420951E-01   .8548655E-01
   .8673024E-01   .8796003E-01   .8919661E-01   .9046098E-01   .9177346E-01
   .9315297E-01   .9461648E-01   .9617867E-01   .9785194E-01   .9964659E-01
   .1015709E+00   .1036309E+00   .1058301E+00   .1081692E+00   .1106459E+00
   .1132553E+00   .1159900E+00   .1188407E+00   .1217963E+00   .1248446E+00
   .1279730E+00   .1311689E+00   .1344210E+00   .1377197E+00   .1410575E+00
   .1444286E+00   .1478287E+00   .1512542E+00   .1547011E+00   .1581653E+00
   .1616421E+00   .1651265E+00   .1686137E+00   .1720993E+00   .1755788E+00
   .1790476E+00   .1825012E+00   .1859346E+00   .1893428E+00   .1927208E+00
   .1960641E+00   .1993686E+00   .2026311E+00   .2058490E+00   .2090198E+00
   .2121411E+00   .2152101E+00   .2182232E+00   .2211757E+00   .2240624E+00
   .2268773E+00   .2296145E+00   .2322684E+00   .2348351E+00   .2373125E+00
   .2397013E+00   .2420046E+00   .2442277E+00   .2463778E+00   .2484628E+00
   .2504920E+00   .2524747E+00   .2544204E+00   .2563386E+00   .2582388E+00
   .2601306E+00   .2620235E+00   .2639272E+00   .2658519E+00   .2678079E+00
   .2698058E+00   .2718565E+00   .2739704E+00   .2761577E+00   .2784270E+00
   .2807851E+00   .2832361E+00   .2857810E+00   .2884173E+00   .2911390E+00
   .2939377E+00   .2968032E+00   .2997248E+00   .3026915E+00   .3056932E+00
   .3087202E+00   .3117639E+00   .3148162E+00   .3178700E+00   .3209187E+00
   .3239564E+00   .3269780E+00   .3299797E+00   .3329592E+00   .3359169E+00
   .3388557E+00   .3417812E+00   .3447017E+00   .3476274E+00   .3505693E+00
   .3535384E+00   .3565450E+00   .3595981E+00   .3627047E+00   .3658696E+00
   .3690953E+00   .3723822E+00   .3757294E+00   .3791357E+00   .3826003E+00
   .3861234E+00   .3897064E+00   .3933520E+00   .3970638E+00   .4008463E+00
   .4047046E+00   .4086447E+00   .4126729E+00   .4167962E+00   .4210218E+00
   .4253571E+00   .4298093E+00   .4343846E+00   .4390883E+00   .4439233E+00
   .4488905E+00   .4539879E+00   .4592109E+00   .4645515E+00   .4699994E+00
   .4755416E+00   .4811637E+00   .4868501E+00   .4925843E+00   .4983484E+00
   .5041237E+00   .5098904E+00   .5156280E+00   .5213161E+00   .5269350E+00
   .5324669E+00   .5378953E+00   .5432059E+00   .5483860E+00   .5534250E+00
   .5583143E+00   .5630481E+00   .5676229E+00   .5720382E+00   .5762963E+00
   .5804018E+00   .5843613E+00   .5881832E+00   .5918770E+00   .5954532E+00
   .5989225E+00   .6022953E+00   .6055811E+00   .6087886E+00   .6119253E+00
   .6149980E+00   .6180126E+00   .6209749E+00   .6238904E+00   .6267644E+00
   .6296023E+00   .6324096E+00   .6351919E+00   .6379548E+00   .6407040E+00
   .6434446E+00   .6461817E+00   .6489195E+00   .6516618E+00   .6544118E+00
   .6571723E+00   .6599459E+00   .6627355E+00   .6655448E+00   .6683781E+00
   .6712412E+00   .6741408E+00   .6770843E+00   .6800797E+00   .6831349E+00
   .6862576E+00   .6894546E+00   .6927316E+00   .6960932E+00   .6995424E+00
   .7030802E+00   .7067062E+00   .7104178E+00   .7142111E+00   .7180811E+00
   .7220225E+00   .7260291E+00   .7300949E+00   .7342131E+00   .7383763E+00
   .7425765E+00   .7468046E+00   .7510507E+00   .7553041E+00   .7595535E+00
   .7637876E+00   .7679947E+00   .7721631E+00   .7762810E+00   .7803362E+00
   .7843164E+00   .7882089E+00   .7920007E+00   .7956784E+00   .7992284E+00
   .8026370E+00   .8058904E+00   .8089753E+00   .8118794E+00   .8145920E+00
   .8171042E+00   .8194100E+00   .8215069E+00   .8233956E+00   .8250805E+00
   .8265692E+00   .8278725E+00   .8290032E+00   .8299754E+00   .8308046E+00
   .8315073E+00   .8321006E+00   .8326028E+00   .8330331E+00   .8334117E+00
   .8337595E+00   .8340982E+00   .8344495E+00   .8348346E+00   .8352732E+00
   .8357825E+00   .8363765E+00   .8370651E+00   .8378529E+00   .8387397E+00
   .8397200E+00   .8407842E+00   .8419199E+00   .8431135E+00   .8443514E+00
   .8456198E+00   .8469057E+00   .8481967E+00   .8494809E+00   .8507469E+00
   .8519845E+00   .8531847E+00   .8543398E+00   .8554437E+00   .8564927E+00
   .8574850E+00   .8584210E+00   .8593034E+00   .8601369E+00   .8609277E+00
   .8616838E+00   .8624143E+00   .8631300E+00   .8638422E+00   .8645634E+00
   .8653062E+00   .8660835E+00   .8669074E+00   .8677892E+00   .8687378E+00
   .8697597E+00   .8708574E+00   .8720288E+00   .8732677E+00   .8745638E+00
   .8759034E+00   .8772712E+00   .8786504E+00   .8800240E+00   .8813757E+00
   .8826902E+00   .8839537E+00   .8851550E+00   .8862849E+00   .8873372E+00
   .8883083E+00   .8891976E+00   .8900071E+00   .8907417E+00   .8914090E+00
   .8920190E+00   .8925839E+00   .8931175E+00   .8936350E+00   .8941516E+00
   .8946823E+00   .8952416E+00   .8958429E+00   .8964984E+00   .8972177E+00
   .8980080E+00   .8988728E+00   .8998118E+00   .9008215E+00   .9018958E+00
   .9030270E+00   .9042066E+00   .9054257E+00   .9066753E+00   .9079462E+00
   .9092294E+00   .9105161E+00   .9117977E+00   .9130657E+00   .9143121E+00
   .9155294E+00   .9167105E+00   .9178490E+00   .9189395E+00   .9199772E+00
   .9209581E+00   .9218788E+00   .9227364E+00   .9235285E+00   .9242528E+00
   .9249072E+00   .9254896E+00   .9259982E+00   .9264308E+00   .9267857E+00
   .9270616E+00   .9272576E+00   .9273736E+00   .9274106E+00   .9273702E+00
   .9272551E+00   .9270686E+00   .9268144E+00   .9264968E+00   .9261201E+00
   .9256890E+00   .9252079E+00   .9246814E+00   .9241139E+00   .9235092E+00
   .9228707E+00   .9222011E+00   .9215023E+00   .9207753E+00   .9200203E+00
   .9192364E+00   .9184222E+00   .9175758E+00   .9166951E+00   .9157785E+00
   .9148250E+00   .9138344E+00   .9128082E+00   .9117491E+00   .9106619E+00
   .9095532E+00   .9084312E+00   .9073056E+00   .9061864E+00   .9050837E+00
   .9040068E+00   .9029640E+00   .9019625E+00   .9010089E+00   .9001085E+00
   .8992659E+00   .8984851E+00   .8977689E+00   .8971201E+00   .8965407E+00
   .8960331E+00   .8955995E+00   .8952425E+00   .8949647E+00   .8947686E+00
   .8946562E+00   .8946285E+00   .8946853E+00   .8948236E+00   .8950379E+00
   .8953188E+00   .8956537E+00   .8960264E+00   .8964179E+00   .8968076E+00
   .8971740E+00   .8974951E+00   .8977503E+00   .8979203E+00   .8979884E+00
   .8979403E+00   .8977649E+00   .8974538E+00   .8970018E+00   .8964060E+00
   .8956658E+00   .8947826E+00   .8937593E+00   .8926005E+00   .8913123E+00
   .8899020E+00   .8883782E+00   .8867504E+00   .8850289E+00   .8832239E+00
   .8813455E+00   .8794037E+00   .8774079E+00   .8753680E+00   .8732943E+00
   .8711980E+00   .8690917E+00   .8669891E+00   .8649052E+00   .8628557E+00
   .8608566E+00   .8589237E+00   .8570719E+00   .8553146E+00   .8536633E+00
   .8521273E+00   .8507137E+00   .8494273E+00   .8482714E+00   .8472478E+00
   .8463568E+00   .8455974E+00   .8449672E+00   .8444626E+00   .8440784E+00
   .8438081E+00   .8436429E+00   .8435721E+00   .8435828E+00   .8436598E+00
   .8437862E+00   .8439443E+00   .8441163E+00   .8442858E+00   .8444382E+00
   .8445609E+00   .8446436E+00   .8446781E+00   .8446581E+00   .8445799E+00
   .8444419E+00   .8442445E+00   .8439897E+00   .8436808E+00   .8433216E+00
   .8429159E+00   .8424670E+00   .8419777E+00   .8414500E+00   .8408857E+00
   .8402860E+00   .8396526E+00   .8389872E+00   .8382923E+00   .8375708E+00
   .8368266E+00   .8360643E+00   .8352887E+00   .8345053E+00   .8337191E+00
   .8329354E+00   .8321588E+00   .8313937E+00   .8306439E+00   .8299131E+00
   .8292044E+00   .8285211E+00   .8278667E+00   .8272449E+00   .8266601E+00
   .8261174E+00   .8256224E+00   .8251815E+00   .8248016E+00   .8244900E+00
   .8242539E+00   .8241007E+00   .8240374E+00   .8240702E+00   .8242042E+00
   .8244435E+00   .8247910E+00   .8252483E+00   .8258166E+00   .8264964E+00
   .8272886E+00   .8281938E+00   .8292127E+00   .8303457E+00   .8315927E+00
   .8329526E+00   .8344226E+00   .8359981E+00   .8376720E+00   .8394344E+00
   .8412727E+00   .8431712E+00   .8451116E+00   .8470738E+00   .8490363E+00
   .8509774E+00   .8528757E+00   .8547106E+00   .8564630E+00   .8581159E+00
   .8596543E+00   .8610658E+00   .8623406E+00   .8634713E+00   .8644537E+00
   .8652863E+00   .8659705E+00   .8665108E+00   .8669150E+00   .8671940E+00
   .8673616E+00   .8674338E+00   .8674280E+00   .8673617E+00   .8672517E+00
   .8671138E+00   .8669626E+00   .8668111E+00   .8666712E+00   .8665532E+00
   .8664660E+00   .8664172E+00   .8664129E+00   .8664578E+00   .8665554E+00
   .8667078E+00   .8669163E+00   .8671813E+00   .8675023E+00   .8678783E+00
   .8683075E+00   .8687874E+00   .8693150E+00   .8698869E+00   .8704995E+00
   .8711488E+00   .8718310E+00   .8725419E+00   .8732775E+00   .8740337E+00
   .8748065E+00   .8755927E+00   .8763890E+00   .8771932E+00   .8780033E+00
   .8788181E+00   .8796367E+00   .8804579E+00   .8812799E+00   .8821000E+00
   .8829138E+00   .8837157E+00   .8844987E+00   .8852553E+00   .8859783E+00
   .8866612E+00   .8872989E+00   .8878882E+00   .8884269E+00   .8889144E+00
   .8893504E+00   .8897352E+00   .8900689E+00   .8903511E+00   .8905810E+00
   .8907571E+00   .8908765E+00   .8909354E+00   .8909283E+00   .8908489E+00
   .8906896E+00   .8904427E+00   .8901006E+00   .8896567E+00   .8891064E+00
   .8884476E+00   .8876815E+00   .8868129E+00   .8858500E+00   .8848031E+00
   .8836844E+00   .8825059E+00   .8812796E+00   .8800165E+00   .8787263E+00
   .8774172E+00   .8760962E+00   .8747692E+00   .8734418E+00   .8721194E+00
   .8708080E+00   .8695134E+00   .8682415E+00   .8669969E+00   .8657829E+00
   .8646008E+00   .8634503E+00   .8623293E+00   .8612348E+00   .8601641E+00
   .8591150E+00   .8580864E+00   .8570789E+00   .8560942E+00   .8551354E+00
   .8542061E+00   .8533104E+00   .8524521E+00   .8516345E+00   .8508601E+00
   .8501300E+00   .8494439E+00   .8487999E+00   .8481943E+00   .8476216E+00
   .8470751E+00   .8465466E+00   .8460279E+00   .8455100E+00   .8449840E+00
   .8444416E+00   .8438751E+00   .8432779E+00   .8426453E+00   .8419738E+00
   .8412618E+00   .8405089E+00   .8397158E+00   .8388842E+00   .8380161E+00
   .8371144E+00   .8361820E+00   .8352229E+00   .8342414E+00   .8332427E+00
   .8322327E+00   .8312181E+00   .8302057E+00   .8292029E+00   .8282173E+00
   .8272563E+00   .8263273E+00   .8254370E+00   .8245913E+00   .8237950E+00
   .8230515E+00   .8223623E+00   .8217276E+00   .8211461E+00   .8206149E+00
   .8201300E+00   .8196862E+00   .8192774E+00   .8188966E+00   .8185356E+00
   .8181855E+00   .8178364E+00   .8174779E+00   .8170988E+00   .8166875E+00
   .8162326E+00   .8157223E+00   .8151455E+00   .8144918E+00   .8137517E+00
   .8129168E+00   .8119802E+00   .8109360E+00   .8097792E+00   .8085057E+00
   .8071120E+00   .8055953E+00   .8039534E+00   .8021850E+00   .8002898E+00
   .7982687E+00   .7961244E+00   .7938613E+00   .7914857E+00   .7890059E+00
   .7864320E+00   .7837762E+00   .7810524E+00   .7782754E+00   .7754605E+00
   .7726230E+00   .7697775E+00   .7669378E+00   .7641166E+00   .7613251E+00
   .7585729E+00   .7558676E+00   .7532144E+00   .7506167E+00   .7480749E+00
   .7455875E+00   .7431506E+00   .7407583E+00   .7384039E+00   .7360796E+00
   .7337772E+00   .7314884E+00   .7292049E+00   .7269190E+00   .7246239E+00
   .7223136E+00   .7199830E+00   .7176282E+00   .7152457E+00   .7128331E+00
   .7103883E+00   .7079098E+00   .7053967E+00   .7028482E+00   .7002641E+00
   .6976442E+00   .6949883E+00   .6922965E+00   .6895688E+00   .6868051E+00
   .6840056E+00   .6811702E+00   .6782987E+00   .6753911E+00   .6724468E+00
   .6694653E+00   .6664462E+00   .6633887E+00   .6602925E+00   .6571575E+00
   .6539840E+00   .6507733E+00   .6475273E+00   .6442489E+00   .6409418E+00
   .6376103E+00   .6342585E+00   .6308902E+00   .6275082E+00   .6241135E+00
   .6207057E+00   .6172833E+00   .6138438E+00   .6103847E+00   .6069032E+00
   .6033968E+00   .5998633E+00   .5963006E+00   .5927069E+00   .5890803E+00
   .5854190E+00   .5817207E+00   .5779835E+00   .5742048E+00   .5703821E+00
   .5665128E+00   .5625942E+00   .5586240E+00   .5545999E+00   .5505200E+00
   .5463829E+00   .5421878E+00   .5379343E+00   .5336228E+00   .5292546E+00
   .5248321E+00   .5203584E+00   .5158376E+00   .5112742E+00   .5066729E+00
   .5020374E+00   .4973707E+00   .4926740E+00   .4879467E+00   .4831866E+00
   .4783902E+00   .4735534E+00   .4686720E+00   .4637422E+00   .4587618E+00
   .4537302E+00   .4486493E+00   .4435234E+00   .4383593E+00   .4331662E+00
   .4279543E+00   .4227345E+00   .4175162E+00   .4123069E+00   .4071119E+00
   .4019339E+00   .3967739E+00   .3916316E+00   .3865056E+00   .3813937E+00
   .3762930E+00   .3712000E+00   .3661108E+00   .3610214E+00   .3559271E+00
   .3508232E+00   .3457045E+00   .3405656E+00   .3354005E+00   .3302030E+00
   .3249667E+00   .3196846E+00   .3143498E+00   .3089554E+00   .3034949E+00
   .2979627E+00   .2923547E+00   .2866686E+00   .2809045E+00   .2750653E+00
   .2691568E+00   .2631876E+00   .2571685E+00   .2511123E+00   .2450322E+00
   .2389419E+00   .2328546E+00   .2267827E+00   .2207370E+00   .2147267E+00
   .2087587E+00   .2028379E+00   .1969672E+00   .1911478E+00   .1853802E+00
   .1796642E+00   .1739992E+00   .1683844E+00   .1628186E+00   .1573007E+00
   .1518297E+00   .1464047E+00   .1410251E+00   .1356905E+00   .1304007E+00
   .1251558E+00   .1199561E+00   .1148017E+00   .1096929E+00   .1046302E+00
   .9961375E-01   .9464392E-01   .8972094E-01   .8484497E-01   .8001603E-01
   .7523402E-01   .7049860E-01   .6580914E-01   .6116464E-01   .5656360E-01
   .5200393E-01   .4748286E-01   .4299676E-01   .3854105E-01   .3411011E-01
   .2969730E-01   .2529502E-01   .2089482E-01   .1648757E-01   .1206377E-01
   .7614028E-02   .3129561E-02  -.1397241E-02  -.5972284E-02  -.1059932E-01
  -.1527962E-01  -.2001185E-01  -.2479224E-01  -.2961504E-01  -.3447329E-01
  -.3935947E-01  -.4426615E-01  -.4918645E-01  -.5411444E-01  -.5904541E-01
  -.6397595E-01  -.6890378E-01  -.7382729E-01  -.7874484E-01  -.8365397E-01
  -.8855070E-01  -.9342910E-01  -.9828120E-01  -.1030973E+00  -.1078664E+00
  -.1125771E+00  -.1172184E+00  -.1217799E+00  -.1262533E+00  -.1306321E+00
  -.1349126E+00  -.1390935E+00  -.1431759E+00  -.1471629E+00  -.1510594E+00
  -.1548711E+00  -.1586048E+00  -.1622669E+00  -.1658639E+00  -.1694020E+00
  -.1728879E+00  -.1763285E+00  -.1797317E+00  -.1831064E+00  -.1864623E+00
  -.1898096E+00  -.1931589E+00  -.1965207E+00  -.1999048E+00  -.2033202E+00
  -.2067745E+00  -.2102733E+00  -.2138205E+00  -.2174178E+00  -.2210650E+00
  -.2247603E+00  -.2285009E+00  -.2322826E+00  -.2361012E+00  -.2399526E+00
  -.2438331E+00  -.2477398E+00  -.2516709E+00  -.2556249E+00  -.2596015E+00
  -.2636006E+00  -.2676225E+00  -.2716677E+00  -.2757372E+00  -.2798320E+00
  -.2839534E+00  -.2881022E+00  -.2922793E+00  -.2964850E+00  -.3007189E+00
  -.3049801E+00  -.3092667E+00  -.3135765E+00  -.3179064E+00  -.3222531E+00
  -.3266126E+00  -.3309804E+00  -.3353516E+00  -.3397203E+00  -.3440802E+00
  -.3484246E+00  -.3527472E+00  -.3570422E+00  -.3613058E+00  -.3655359E+00
  -.3697329E+00  -.3738991E+00  -.3780389E+00  -.3821582E+00  -.3862636E+00
  -.3903628E+00  -.3944637E+00  -.3985745E+00  -.4027030E+00  -.4068567E+00
  -.4110426E+00  -.4152671E+00  -.4195358E+00  -.4238533E+00  -.4282231E+00
  -.4326465E+00  -.4371232E+00  -.4416505E+00  -.4462231E+00  -.4508337E+00
  -.4554723E+00  -.4601273E+00  -.4647852E+00  -.4694309E+00  -.4740492E+00
  -.4786246E+00  -.4831427E+00  -.4875902E+00  -.4919548E+00  -.4962259E+00
  -.5003945E+00  -.5044534E+00  -.5083976E+00  -.5122248E+00  -.5159353E+00
  -.5195320E+00  -.5230193E+00  -.5264036E+00  -.5296918E+00  -.5328921E+00
  -.5360131E+00  -.5390646E+00  -.5420568E+00  -.5450004E+00  -.5479066E+00
  -.5507866E+00  -.5536522E+00  -.5565147E+00  -.5593857E+00  -.5622765E+00
  -.5651982E+00  -.5681612E+00  -.5711758E+00  -.5742514E+00  -.5773971E+00
  -.5806213E+00  -.5839319E+00  -.5873364E+00  -.5908415E+00  -.5944531E+00
  -.5981764E+00  -.6020157E+00  -.6059741E+00  -.6100539E+00  -.6142567E+00
  -.6185834E+00  -.6230345E+00  -.6276102E+00  -.6323109E+00  -.6371363E+00
  -.6420861E+00  -.6471596E+00  -.6523556E+00  -.6576722E+00  -.6631069E+00
  -.6686566E+00  -.6743175E+00  -.6800850E+00  -.6859537E+00  -.6919172E+00
  -.6979681E+00  -.7040980E+00  -.7102974E+00  -.7165559E+00  -.7228622E+00
  -.7292038E+00  -.7355679E+00  -.7419409E+00  -.7483092E+00  -.7546594E+00
  -.7609789E+00  -.7672564E+00  -.7734819E+00  -.7796471E+00  -.7857458E+00
  -.7917741E+00  -.7977304E+00  -.8036158E+00  -.8094345E+00  -.8151928E+00
  -.8208993E+00  -.8265637E+00  -.8321964E+00  -.8378079E+00  -.8434080E+00
  -.8490057E+00  -.8546085E+00  -.8602222E+00  -.8658510E+00  -.8714976E+00
  -.8771641E+00  -.8828522E+00  -.8885639E+00  -.8943017E+00  -.9000686E+00
  -.9058680E+00  -.9117036E+00  -.9175790E+00  -.9234979E+00  -.9294639E+00
  -.9354807E+00  -.9415520E+00  -.9476821E+00  -.9538755E+00  -.9601375E+00
  -.9664744E+00  -.9728931E+00  -.9794012E+00  -.9860065E+00  -.9927165E+00
  -.9995373E+00  -.1006473E+01  -.1013526E+01  -.1020694E+01  -.1027974E+01
  -.1035360E+01  -.1042842E+01  -.1050412E+01  -.1058060E+01  -.1065778E+01
  -.1073554E+01  -.1081381E+01  -.1089251E+01  -.1097155E+01  -.1105085E+01
  -.1113030E+01  -.1120981E+01  -.1128926E+01  -.1136852E+01  -.1144742E+01
  -.1152583E+01  -.1160357E+01  -.1168048E+01  -.1175639E+01  -.1183117E+01
  -.1190468E+01  -.1197681E+01  -.1204747E+01  -.1211658E+01  -.1218409E+01
  -.1224995E+01  -.1231414E+01  -.1237667E+01  -.1243757E+01  -.1249686E+01
  -.1255461E+01  -.1261088E+01  -.1266572E+01  -.1271922E+01  -.1277145E+01
  -.1282247E+01  -.1287236E+01  -.1292117E+01  -.1296899E+01  -.1301589E+01
  -.1306197E+01  -.1310733E+01  -.1315211E+01  -.1319643E+01  -.1324043E+01
  -.1328424E+01  -.1332798E+01  -.1337178E+01  -.1341572E+01  -.1345989E+01
  -.1350434E+01  -.1354908E+01  -.1359412E+01  -.1363941E+01  -.1368492E+01
  -.1373056E+01  -.1377628E+01  -.1382203E+01  -.1386777E+01  -.1391348E+01
  -.1395918E+01  -.1400489E+01  -.1405065E+01  -.1409652E+01  -.1414255E+01
  -.1418880E+01  -.1423528E+01  -.1428201E+01  -.1432896E+01  -.1437608E+01
  -.1442329E+01  -.1447051E+01  -.1451765E+01  -.1456460E+01  -.1461127E+01
  -.1465755E+01  -.1470335E+01  -.1474858E+01  -.1479314E+01  -.1483694E+01
  -.1487988E+01  -.1492186E+01  -.1496277E+01  -.1500252E+01  -.1504099E+01
  -.1507810E+01  -.1511376E+01  -.1514789E+01  -.1518041E+01  -.1521126E+01
  -.1524038E+01  -.1526775E+01  -.1529333E+01  -.1531714E+01  -.1533918E+01
  -.1535951E+01  -.1537821E+01  -.1539537E+01  -.1541112E+01  -.1542561E+01
  -.1543900E+01  -.1545146E+01  -.1546317E+01  -.1547432E+01  -.1548506E+01
  -.1549556E+01  -.1550596E+01  -.1551639E+01  -.1552697E+01  -.1553778E+01
  -.1554891E+01  -.1556042E+01  -.1557233E+01  -.1558468E+01  -.1559747E+01
  -.1561067E+01  -.1562426E+01  -.1563821E+01  -.1565247E+01  -.1566701E+01
  -.1568179E+01  -.1569678E+01  -.1571196E+01  -.1572731E+01  -.1574285E+01
  -.1575859E+01  -.1577455E+01  -.1579076E+01  -.1580724E+01  -.1582402E+01
  -.1584111E+01  -.1585853E+01  -.1587629E+01  -.1589438E+01  -.1591280E+01
  -.1593157E+01  -.1595065E+01  -.1597006E+01  -.1598975E+01  -.1600970E+01
  -.1602986E+01  -.1605018E+01  -.1607057E+01  -.1609096E+01  -.1611125E+01
  -.1613134E+01  -.1615113E+01  -.1617051E+01  -.1618937E+01  -.1620763E+01
  -.1622518E+01  -.1624193E+01  -.1625782E+01  -.1627276E+01  -.1628669E+01
  -.1629956E+01  -.1631132E+01  -.1632193E+01  -.1633135E+01  -.1633955E+01
  -.1634649E+01  -.1635215E+01  -.1635650E+01  -.1635954E+01  -.1636126E+01
  -.1636169E+01  -.1636084E+01  -.1635876E+01  -.1635549E+01  -.1635109E+01
  -.1634564E+01  -.1633920E+01  -.1633187E+01  -.1632376E+01  -.1631496E+01
  -.1630560E+01  -.1629577E+01  -.1628559E+01  -.1627516E+01  -.1626455E+01
  -.1625381E+01  -.1624299E+01  -.1623208E+01  -.1622109E+01  -.1621000E+01
  -.1619876E+01  -.1618736E+01  -.1617575E+01  -.1616391E+01  -.1615182E+01
  -.1613945E+01  -.1612680E+01  -.1611387E+01  -.1610066E+01  -.1608716E+01
  -.1607339E+01  -.1605933E+01  -.1604500E+01  -.1603037E+01  -.1601545E+01
  -.1600022E+01  -.1598465E+01  -.1596873E+01  -.1595242E+01  -.1593569E+01
  -.1591851E+01  -.1590087E+01  -.1588275E+01  -.1586413E+01  -.1584502E+01
  -.1582543E+01  -.1580538E+01  -.1578489E+01  -.1576399E+01  -.1574271E+01
  -.1572109E+01  -.1569918E+01  -.1567701E+01  -.1565466E+01  -.1563218E+01
  -.1560967E+01  -.1558719E+01  -.1556483E+01  -.1554270E+01  -.1552087E+01
  -.1549942E+01  -.1547844E+01  -.1545798E+01  -.1543808E+01  -.1541877E+01
  -.1540005E+01  -.1538194E+01  -.1536442E+01  -.1534748E+01  -.1533109E+01
  -.1531523E+01  -.1529987E+01  -.1528499E+01  -.1527054E+01  -.1525652E+01
  -.1524291E+01  -.1522970E+01  -.1521690E+01  -.1520451E+01  -.1519255E+01
  -.1518103E+01  -.1516995E+01  -.1515932E+01  -.1514914E+01  -.1513942E+01
  -.1513012E+01  -.1512123E+01  -.1511271E+01  -.1510451E+01  -.1509657E+01
  -.1508882E+01  -.1508118E+01  -.1507356E+01  -.1506589E+01  -.1505806E+01
  -.1505000E+01  -.1504161E+01  -.1503281E+01  -.1502356E+01  -.1501378E+01
  -.1500344E+01  -.1499254E+01  -.1498105E+01  -.1496901E+01  -.1495645E+01
  -.1494340E+01  -.1492994E+01  -.1491614E+01  -.1490208E+01  -.1488785E+01
  -.1487357E+01  -.1485936E+01  -.1484534E+01  -.1483164E+01  -.1481836E+01
  -.1480561E+01  -.1479347E+01  -.1478203E+01  -.1477130E+01  -.1476133E+01
  -.1475211E+01  -.1474364E+01  -.1473587E+01  -.1472876E+01  -.1472223E+01
  -.1471622E+01  -.1471065E+01  -.1470542E+01  -.1470047E+01  -.1469571E+01
  -.1469107E+01  -.1468648E+01  -.1468189E+01  -.1467723E+01  -.1467247E+01
  -.1466759E+01  -.1466255E+01  -.1465735E+01  -.1465201E+01  -.1464654E+01
  -.1464098E+01  -.1463538E+01  -.1462981E+01  -.1462432E+01  -.1461901E+01
  -.1461397E+01  -.1460929E+01  -.1460510E+01  -.1460151E+01  -.1459863E+01
  -.1459657E+01  -.1459543E+01  -.1459526E+01  -.1459611E+01  -.1459800E+01
  -.1460089E+01  -.1460477E+01  -.1460957E+01  -.1461523E+01  -.1462167E+01
  -.1462881E+01  -.1463654E+01  -.1464478E+01  -.1465344E+01  -.1466240E+01
  -.1467158E+01  -.1468087E+01  -.1469018E+01  -.1469942E+01  -.1470850E+01
  -.1471732E+01  -.1472581E+01  -.1473390E+01  -.1474151E+01  -.1474860E+01
  -.1475511E+01  -.1476102E+01  -.1476631E+01  -.1477098E+01  -.1477505E+01
  -.1477854E+01  -.1478150E+01  -.1478397E+01  -.1478597E+01  -.1478754E+01
  -.1478866E+01  -.1478933E+01  -.1478950E+01  -.1478911E+01  -.1478806E+01
  -.1478624E+01  -.1478355E+01  -.1477986E+01  -.1477507E+01  -.1476906E+01
  -.1476175E+01  -.1475304E+01  -.1474285E+01  -.1473113E+01  -.1471780E+01
  -.1470282E+01  -.1468615E+01  -.1466774E+01  -.1464754E+01  -.1462552E+01
  -.1460166E+01  -.1457593E+01  -.1454834E+01  -.1451890E+01  -.1448765E+01
  -.1445464E+01  -.1441995E+01  -.1438366E+01  -.1434586E+01  -.1430666E+01
  -.1426616E+01  -.1422448E+01  -.1418174E+01  -.1413805E+01  -.1409353E+01
  -.1404829E+01  -.1400242E+01  -.1395601E+01  -.1390912E+01  -.1386180E+01
  -.1381408E+01  -.1376597E+01  -.1371746E+01  -.1366855E+01  -.1361919E+01
  -.1356936E+01  -.1351902E+01  -.1346814E+01  -.1341667E+01  -.1336459E+01
  -.1331184E+01  -.1325839E+01  -.1320422E+01  -.1314930E+01  -.1309360E+01
  -.1303712E+01  -.1297986E+01  -.1292183E+01  -.1286308E+01  -.1280366E+01
  -.1274367E+01  -.1268321E+01  -.1262241E+01  -.1256140E+01  -.1250032E+01
  -.1243929E+01  -.1237842E+01  -.1231779E+01  -.1225748E+01  -.1219754E+01
  -.1213799E+01  -.1207885E+01  -.1202011E+01  -.1196174E+01  -.1190370E+01
  -.1184593E+01  -.1178837E+01  -.1173092E+01  -.1167353E+01  -.1161610E+01
  -.1155858E+01  -.1150092E+01  -.1144307E+01  -.1138501E+01  -.1132675E+01
  -.1126827E+01  -.1120959E+01  -.1115070E+01  -.1109163E+01  -.1103237E+01
  -.1097295E+01  -.1091338E+01  -.1085371E+01  -.1079397E+01  -.1073421E+01
  -.1067451E+01  -.1061491E+01  -.1055549E+01  -.1049632E+01  -.1043747E+01
  -.1037901E+01  -.1032102E+01  -.1026357E+01  -.1020674E+01  -.1015061E+01
  -.1009524E+01  -.1004072E+01  -.9987116E+00  -.9934489E+00  -.9882902E+00
  -.9832408E+00  -.9783055E+00  -.9734884E+00  -.9687933E+00  -.9642237E+00
  -.9597832E+00  -.9554756E+00  -.9513045E+00  -.9472735E+00  -.9433850E+00
  -.9396403E+00  -.9360385E+00  -.9325764E+00  -.9292476E+00  -.9260427E+00
  -.9229495E+00  -.9199534E+00  -.9170387E+00  -.9141891E+00  -.9113889E+00
  -.9086232E+00  -.9058779E+00  -.9031399E+00  -.9003967E+00  -.8976361E+00
  -.8948461E+00  -.8920149E+00  -.8891305E+00  -.8861813E+00  -.8831554E+00
  -.8800418E+00  -.8768294E+00  -.8735082E+00  -.8700688E+00  -.8665029E+00
  -.8628036E+00  -.8589654E+00  -.8549848E+00  -.8508600E+00  -.8465909E+00
  -.8421793E+00  -.8376283E+00  -.8329420E+00  -.8281251E+00  -.8231831E+00
  -.8181217E+00  -.8129475E+00  -.8076677E+00  -.8022901E+00  -.7968233E+00
  -.7912768E+00  -.7856602E+00  -.7799839E+00  -.7742582E+00  -.7684937E+00
  -.7627007E+00  -.7568892E+00  -.7510687E+00  -.7452477E+00  -.7394339E+00
  -.7336335E+00  -.7278517E+00  -.7220921E+00  -.7163574E+00  -.7106492E+00
  -.7049686E+00  -.6993165E+00  -.6936941E+00  -.6881032E+00  -.6825459E+00
  -.6770253E+00  -.6715445E+00  -.6661065E+00  -.6607138E+00  -.6553680E+00
  -.6500694E+00  -.6448170E+00  -.6396083E+00  -.6344399E+00  -.6293073E+00
  -.6242059E+00  -.6191308E+00  -.6140773E+00  -.6090408E+00  -.6040172E+00
  -.5990026E+00  -.5939939E+00  -.5889882E+00  -.5839833E+00  -.5789771E+00
  -.5739680E+00  -.5689541E+00  -.5639338E+00  -.5589048E+00  -.5538649E+00
  -.5488113E+00  -.5437410E+00  -.5386507E+00  -.5335366E+00  -.5283953E+00
  -.5232230E+00  -.5180167E+00  -.5127737E+00  -.5074924E+00  -.5021722E+00
  -.4968133E+00  -.4914171E+00  -.4859860E+00  -.4805228E+00  -.4750308E+00
  -.4695134E+00  -.4639738E+00  -.4584145E+00  -.4528371E+00  -.4472425E+00
  -.4416312E+00  -.4360033E+00  -.4303593E+00  -.4247000E+00  -.4190266E+00
  -.4133411E+00  -.4076455E+00  -.4019422E+00  -.3962334E+00  -.3905207E+00
  -.3848050E+00  -.3790856E+00  -.3733607E+00  -.3676267E+00  -.3618786E+00
  -.3561104E+00  -.3503157E+00  -.3444884E+00  -.3386234E+00  -.3327168E+00
  -.3267666E+00  -.3207727E+00  -.3147371E+00  -.3086635E+00  -.3025570E+00
  -.2964237E+00  -.2902701E+00  -.2841026E+00  -.2779280E+00  -.2717527E+00
  -.2655831E+00  -.2594255E+00  -.2532862E+00  -.2471708E+00  -.2410849E+00
  -.2350332E+00  -.2290197E+00  -.2230478E+00  -.2171196E+00  -.2112366E+00
  -.2053994E+00  -.1996082E+00  -.1938630E+00  -.1881630E+00  -.1825073E+00
  -.1768949E+00  -.1713245E+00  -.1657947E+00  -.1603045E+00  -.1548533E+00
  -.1494410E+00  -.1440680E+00  -.1387353E+00  -.1334444E+00  -.1281969E+00
  -.1229942E+00  -.1178377E+00  -.1127282E+00  -.1076657E+00  -.1026498E+00
  -.9767862E-01  -.9274985E-01  -.8786005E-01  -.8300485E-01  -.7817896E-01
  -.7337616E-01  -.6858954E-01  -.6381201E-01  -.5903685E-01  -.5425841E-01
  -.4947240E-01  -.4467561E-01  -.3986573E-01  -.3504129E-01  -.3020173E-01
  -.2534744E-01  -.2047989E-01  -.1560147E-01  -.1071541E-01  -.5825417E-02
  -.9354710E-03   .3950416E-02   .8828263E-02   .1369416E-01   .1854427E-01
   .2337487E-01   .2818234E-01   .3296325E-01   .3771433E-01   .4243256E-01
   .4711508E-01   .5175921E-01   .5636236E-01   .6092189E-01   .6543493E-01
   .6989821E-01   .7430795E-01   .7865976E-01   .8294868E-01   .8716935E-01
   .9131620E-01   .9538370E-01   .9936643E-01   .1032591E+00   .1070565E+00
   .1107533E+00   .1143438E+00   .1178219E+00   .1211811E+00   .1244146E+00
   .1275154E+00   .1304768E+00   .1332925E+00   .1359578E+00   .1384692E+00
   .1408259E+00   .1430297E+00   .1450855E+00   .1470016E+00   .1487899E+00
   .1504650E+00   .1520439E+00   .1535452E+00   .1549882E+00   .1563925E+00
   .1577783E+00   .1591657E+00   .1605754E+00   .1620285E+00   .1635464E+00
   .1651499E+00   .1668589E+00   .1686909E+00   .1706599E+00   .1727764E+00
   .1750470E+00   .1774749E+00   .1800614E+00   .1828053E+00   .1857046E+00
   .1887557E+00   .1919544E+00   .1952961E+00   .1987753E+00   .2023861E+00
   .2061216E+00   .2099736E+00   .2139331E+00   .2179895E+00   .2221319E+00
   .2263486E+00   .2306276E+00   .2349567E+00   .2393236E+00   .2437160E+00
   .2481214E+00   .2525274E+00   .2569217E+00   .2612921E+00   .2656265E+00
   .2699136E+00   .2741425E+00   .2783035E+00   .2823877E+00   .2863880E+00
   .2902985E+00   .2941150E+00   .2978349E+00   .3014572E+00   .3049817E+00
   .3084089E+00   .3117401E+00   .3149765E+00   .3181196E+00   .3211709E+00
   .3241319E+00   .3270043E+00   .3297898E+00   .3324903E+00   .3351081E+00
   .3376460E+00   .3401074E+00   .3424966E+00   .3448185E+00   .3470787E+00
   .3492837E+00   .3514403E+00   .3535557E+00   .3556373E+00   .3576919E+00
   .3597260E+00   .3617450E+00   .3637539E+00   .3657566E+00   .3677567E+00
   .3697569E+00   .3717593E+00   .3737656E+00   .3757765E+00   .3777922E+00
   .3798122E+00   .3818358E+00   .3838618E+00   .3858886E+00   .3879148E+00
   .3899386E+00   .3919585E+00   .3939730E+00   .3959804E+00   .3979792E+00
   .3999675E+00   .4019432E+00   .4039041E+00   .4058473E+00   .4077700E+00
   .4096696E+00   .4115442E+00   .4133934E+00   .4152186E+00   .4170236E+00
   .4188143E+00   .4205983E+00   .4223840E+00   .4241804E+00   .4259964E+00
   .4278409E+00   .4297222E+00   .4316481E+00   .4336250E+00   .4356577E+00
   .4377490E+00   .4398993E+00   .4421071E+00   .4443689E+00   .4466807E+00
   .4490380E+00   .4514369E+00   .4538746E+00   .4563498E+00   .4588634E+00
   .4614181E+00   .4640181E+00   .4666685E+00   .4693743E+00   .4721399E+00
   .4749693E+00   .4778656E+00   .4808322E+00   .4838728E+00   .4869919E+00
   .4901948E+00   .4934876E+00   .4968769E+00   .5003693E+00   .5039710E+00
   .5076873E+00   .5115222E+00   .5154783E+00   .5195569E+00   .5237574E+00
   .5280779E+00   .5325145E+00   .5370621E+00   .5417141E+00   .5464635E+00
   .5513028E+00   .5562249E+00   .5612225E+00   .5662886E+00   .5714159E+00
   .5765970E+00   .5818235E+00   .5870867E+00   .5923769E+00   .5976839E+00
   .6029968E+00   .6083051E+00   .6135985E+00   .6188678E+00   .6241053E+00
   .6293047E+00   .6344614E+00   .6395724E+00   .6446361E+00   .6496517E+00
   .6546199E+00   .6595413E+00   .6644171E+00   .6692481E+00   .6740350E+00
   .6787781E+00   .6834775E+00   .6881330E+00   .6927443E+00   .6973112E+00
   .7018332E+00   .7063096E+00   .7107400E+00   .7151234E+00   .7194589E+00
   .7237457E+00   .7279831E+00   .7321709E+00   .7363101E+00   .7404027E+00
   .7444524E+00   .7484651E+00   .7524484E+00   .7564119E+00   .7603666E+00
   .7643246E+00   .7682994E+00   .7723048E+00   .7763554E+00   .7804653E+00
   .7846486E+00   .7889182E+00   .7932859E+00   .7977618E+00   .8023538E+00
   .8070674E+00   .8119051E+00   .8168665E+00   .8219487E+00   .8271463E+00
   .8324518E+00   .8378569E+00   .8433522E+00   .8489278E+00   .8545740E+00
   .8602808E+00   .8660387E+00   .8718383E+00   .8776706E+00   .8835265E+00
   .8893970E+00   .8952735E+00   .9011477E+00   .9070123E+00   .9128613E+00
   .9186909E+00   .9244992E+00   .9302873E+00   .9360591E+00   .9418206E+00
   .9475799E+00   .9533465E+00   .9591304E+00   .9649421E+00   .9707921E+00
   .9766900E+00   .9826442E+00   .9886622E+00   .9947501E+00   .1000914E+01
   .1007158E+01   .1013489E+01   .1019911E+01   .1026432E+01   .1033055E+01
   .1039785E+01   .1046623E+01   .1053569E+01   .1060619E+01   .1067766E+01
   .1075003E+01   .1082318E+01   .1089699E+01   .1097132E+01   .1104605E+01
   .1112102E+01   .1119611E+01   .1127120E+01   .1134616E+01   .1142091E+01
   .1149538E+01   .1156956E+01   .1164343E+01   .1171703E+01   .1179043E+01
   .1186372E+01   .1193699E+01   .1201033E+01   .1208387E+01   .1215768E+01
   .1223188E+01   .1230655E+01   .1238174E+01   .1245753E+01   .1253392E+01
   .1261092E+01   .1268852E+01   .1276668E+01   .1284533E+01   .1292442E+01
   .1300387E+01   .1308360E+01   .1316355E+01   .1324363E+01   .1332377E+01
   .1340388E+01   .1348389E+01   .1356373E+01   .1364330E+01   .1372253E+01
   .1380134E+01   .1387965E+01   .1395735E+01   .1403438E+01   .1411065E+01
   .1418610E+01   .1426064E+01   .1433422E+01   .1440680E+01   .1447832E+01
   .1454874E+01   .1461803E+01   .1468614E+01   .1475304E+01   .1481871E+01
   .1488314E+01   .1494635E+01   .1500835E+01   .1506922E+01   .1512901E+01
   .1518784E+01   .1524580E+01   .1530302E+01   .1535959E+01   .1541563E+01
   .1547123E+01   .1552648E+01   .1558145E+01   .1563621E+01   .1569079E+01
   .1574524E+01   .1579958E+01   .1585382E+01   .1590794E+01   .1596194E+01
   .1601575E+01   .1606934E+01   .1612260E+01   .1617546E+01   .1622781E+01
   .1627953E+01   .1633051E+01   .1638064E+01   .1642980E+01   .1647789E+01
   .1652478E+01   .1657037E+01   .1661455E+01   .1665724E+01   .1669835E+01
   .1673783E+01   .1677564E+01   .1681179E+01   .1684627E+01   .1687913E+01
   .1691043E+01   .1694024E+01   .1696866E+01   .1699578E+01   .1702171E+01
   .1704655E+01   .1707041E+01   .1709339E+01   .1711557E+01   .1713703E+01
   .1715783E+01   .1717800E+01   .1719757E+01   .1721657E+01   .1723500E+01
   .1725287E+01   .1727018E+01   .1728695E+01   .1730316E+01   .1731884E+01
   .1733400E+01   .1734863E+01   .1736277E+01   .1737642E+01   .1738960E+01
   .1740232E+01   .1741458E+01   .1742640E+01   .1743779E+01   .1744874E+01
   .1745929E+01   .1746944E+01   .1747925E+01   .1748876E+01   .1749804E+01
   .1750717E+01   .1751626E+01   .1752539E+01   .1753468E+01   .1754420E+01
   .1755403E+01   .1756424E+01   .1757487E+01   .1758594E+01   .1759746E+01
   .1760943E+01   .1762182E+01   .1763459E+01   .1764765E+01   .1766091E+01
   .1767426E+01   .1768754E+01   .1770060E+01   .1771328E+01   .1772540E+01
   .1773680E+01   .1774733E+01   .1775684E+01   .1776519E+01   .1777227E+01
   .1777798E+01   .1778221E+01   .1778491E+01   .1778602E+01   .1778552E+01
   .1778340E+01   .1777966E+01   .1777433E+01   .1776742E+01   .1775894E+01
   .1774890E+01   .1773732E+01   .1772419E+01   .1770951E+01   .1769329E+01
   .1767552E+01   .1765624E+01   .1763546E+01   .1761323E+01   .1758960E+01
   .1756463E+01   .1753841E+01   .1751102E+01   .1748254E+01   .1745308E+01
   .1742270E+01   .1739149E+01   .1735952E+01   .1732684E+01   .1729350E+01
   .1725954E+01   .1722499E+01   .1718985E+01   .1715413E+01   .1711780E+01
   .1708084E+01   .1704322E+01   .1700490E+01   .1696584E+01   .1692599E+01
   .1688532E+01   .1684378E+01   .1680135E+01   .1675801E+01   .1671374E+01
   .1666854E+01   .1662243E+01   .1657542E+01   .1652755E+01   .1647887E+01
   .1642942E+01   .1637925E+01   .1632839E+01   .1627690E+01   .1622482E+01
   .1617217E+01   .1611901E+01   .1606536E+01   .1601126E+01   .1595674E+01
   .1590185E+01   .1584662E+01   .1579108E+01   .1573526E+01   .1567919E+01
   .1562292E+01   .1556646E+01   .1550986E+01   .1545313E+01   .1539630E+01
   .1533941E+01   .1528247E+01   .1522551E+01   .1516856E+01   .1511165E+01
   .1505481E+01   .1499807E+01   .1494146E+01   .1488502E+01   .1482877E+01
   .1477275E+01   .1471697E+01   .1466145E+01   .1460619E+01   .1455119E+01
   .1449643E+01   .1444190E+01   .1438757E+01   .1433342E+01   .1427944E+01
   .1422562E+01   .1417197E+01   .1411852E+01   .1406527E+01   .1401226E+01
   .1395952E+01   .1390708E+01   .1385499E+01   .1380327E+01   .1375195E+01
   .1370107E+01   .1365065E+01   .1360073E+01   .1355133E+01   .1350247E+01
   .1345414E+01   .1340635E+01   .1335906E+01   .1331221E+01   .1326575E+01
   .1321958E+01   .1317360E+01   .1312771E+01   .1308179E+01   .1303576E+01
   .1298954E+01   .1294304E+01   .1289622E+01   .1284904E+01   .1280147E+01
   .1275350E+01   .1270514E+01   .1265642E+01   .1260736E+01   .1255801E+01
   .1250844E+01   .1245871E+01   .1240891E+01   .1235914E+01   .1230950E+01
   .1226010E+01   .1221104E+01   .1216242E+01   .1211431E+01   .1206681E+01
   .1201995E+01   .1197379E+01   .1192834E+01   .1188361E+01   .1183959E+01
   .1179627E+01   .1175364E+01   .1171168E+01   .1167038E+01   .1162973E+01
   .1158973E+01   .1155034E+01   .1151154E+01   .1147329E+01   .1143555E+01
   .1139825E+01   .1136133E+01   .1132475E+01   .1128846E+01   .1125242E+01
   .1121659E+01   .1118093E+01   .1114542E+01   .1111001E+01   .1107466E+01
   .1103932E+01   .1100394E+01   .1096850E+01   .1093296E+01   .1089730E+01
   .1086153E+01   .1082566E+01   .1078970E+01   .1075367E+01   .1071760E+01
   .1068153E+01   .1064546E+01   .1060943E+01   .1057345E+01   .1053751E+01
   .1050163E+01   .1046577E+01   .1042992E+01   .1039402E+01   .1035803E+01
   .1032190E+01   .1028556E+01   .1024896E+01   .1021204E+01   .1017476E+01
   .1013711E+01   .1009904E+01   .1006055E+01   .1002163E+01   .9982259E+00
   .9942448E+00   .9902197E+00   .9861512E+00   .9820409E+00   .9778911E+00
   .9737051E+00   .9694877E+00   .9652447E+00   .9609831E+00   .9567104E+00
   .9524344E+00   .9481625E+00   .9439014E+00   .9396568E+00   .9354335E+00
   .9312355E+00   .9270656E+00   .9229262E+00   .9188189E+00   .9147452E+00
   .9107058E+00   .9067008E+00   .9027299E+00   .8987919E+00   .8948851E+00
   .8910072E+00   .8871559E+00   .8833285E+00   .8795229E+00   .8757371E+00
   .8719702E+00   .8682223E+00   .8644946E+00   .8607902E+00   .8571131E+00
   .8534683E+00   .8498614E+00   .8462974E+00   .8427802E+00   .8393128E+00
   .8358961E+00   .8325304E+00   .8292148E+00   .8259482E+00   .8227294E+00
   .8195578E+00   .8164328E+00   .8133544E+00   .8103228E+00   .8073379E+00
   .8044000E+00   .8015086E+00   .7986629E+00   .7958611E+00   .7931011E+00
   .7903795E+00   .7876927E+00   .7850365E+00   .7824062E+00   .7797974E+00
   .7772057E+00   .7746274E+00   .7720596E+00   .7695005E+00   .7669497E+00
   .7644075E+00   .7618753E+00   .7593547E+00   .7568479E+00   .7543570E+00
   .7518841E+00   .7494310E+00   .7469992E+00   .7445890E+00   .7421999E+00
   .7398301E+00   .7374764E+00   .7351343E+00   .7327980E+00   .7304609E+00
   .7281155E+00   .7257536E+00   .7233667E+00   .7209456E+00   .7184812E+00
   .7159646E+00   .7133874E+00   .7107419E+00   .7080218E+00   .7052222E+00
   .7023395E+00   .6993725E+00   .6963214E+00   .6931881E+00   .6899758E+00
   .6866888E+00   .6833327E+00   .6799139E+00   .6764397E+00   .6729186E+00
   .6693593E+00   .6657709E+00   .6621629E+00   .6585447E+00   .6549258E+00
   .6513156E+00   .6477232E+00   .6441573E+00   .6406264E+00   .6371384E+00
   .6337007E+00   .6303205E+00   .6270045E+00   .6237588E+00   .6205894E+00
   .6175015E+00   .6145002E+00   .6115897E+00   .6087744E+00   .6060579E+00
   .6034437E+00   .6009350E+00   .5985349E+00   .5962469E+00   .5940740E+00
   .5920194E+00   .5900861E+00   .5882764E+00   .5865919E+00   .5850336E+00
   .5836011E+00   .5822933E+00   .5811084E+00   .5800440E+00   .5790971E+00
   .5782646E+00   .5775427E+00   .5769272E+00   .5764132E+00   .5759946E+00
   .5756645E+00   .5754144E+00   .5752343E+00   .5751125E+00   .5750352E+00
   .5749871E+00   .5749508E+00   .5749078E+00   .5748389E+00   .5747251E+00
   .5745480E+00   .5742907E+00   .5739378E+00   .5734758E+00   .5728927E+00
   .5721784E+00   .5713240E+00   .5703220E+00   .5691657E+00   .5678493E+00
   .5663676E+00   .5647163E+00   .5628925E+00   .5608948E+00   .5587239E+00
   .5563829E+00   .5538781E+00   .5512181E+00   .5484141E+00   .5454786E+00
   .5424254E+00   .5392685E+00   .5360225E+00   .5327016E+00   .5293198E+00
   .5258909E+00   .5224278E+00   .5189429E+00   .5154478E+00   .5119535E+00
   .5084702E+00   .5050079E+00   .5015756E+00   .4981813E+00   .4948319E+00
   .4915325E+00   .4882863E+00   .4850947E+00   .4819574E+00   .4788727E+00
   .4758374E+00   .4728472E+00   .4698969E+00   .4669803E+00   .4640910E+00
   .4612219E+00   .4583654E+00   .4555139E+00   .4526593E+00   .4497937E+00
   .4469094E+00   .4439993E+00   .4410572E+00   .4380780E+00   .4350579E+00
   .4319942E+00   .4288846E+00   .4257272E+00   .4225196E+00   .4192587E+00
   .4159408E+00   .4125612E+00   .4091152E+00   .4055978E+00   .4020043E+00
   .3983306E+00   .3945727E+00   .3907272E+00   .3867911E+00   .3827616E+00
   .3786365E+00   .3744143E+00   .3700943E+00   .3656771E+00   .3611642E+00
   .3565588E+00   .3518647E+00   .3470871E+00   .3422310E+00   .3373020E+00
   .3323055E+00   .3272471E+00   .3221331E+00   .3169702E+00   .3117666E+00
   .3065319E+00   .3012772E+00   .2960152E+00   .2907595E+00   .2855243E+00
   .2803235E+00   .2751709E+00   .2700793E+00   .2650615E+00   .2601297E+00
   .2552955E+00   .2505697E+00   .2459620E+00   .2414801E+00   .2371298E+00
   .2329143E+00   .2288345E+00   .2248889E+00   .2210742E+00   .2173857E+00
   .2138176E+00   .2103639E+00   .2070184E+00   .2037751E+00   .2006289E+00
   .1975750E+00   .1946093E+00   .1917280E+00   .1889275E+00   .1862045E+00
   .1835554E+00   .1809764E+00   .1784637E+00   .1760125E+00   .1736179E+00
   .1712738E+00   .1689735E+00   .1667096E+00   .1644738E+00   .1622575E+00
   .1600513E+00   .1578456E+00   .1556307E+00   .1533967E+00   .1511344E+00
   .1488356E+00   .1464933E+00   .1441028E+00   .1416618E+00   .1391705E+00
   .1366321E+00   .1340526E+00   .1314399E+00   .1288038E+00   .1261546E+00
   .1235034E+00   .1208612E+00   .1182391E+00   .1156482E+00   .1130992E+00
   .1106024E+00   .1081675E+00   .1058029E+00   .1035161E+00   .1013125E+00
   .9919606E-01   .9716819E-01   .9522826E-01   .9337334E-01   .9159852E-01
   .8989740E-01   .8826270E-01   .8668662E-01   .8516116E-01   .8367833E-01
   .8223035E-01   .8080987E-01   .7941003E-01   .7802463E-01   .7664806E-01
   .7527526E-01   .7390159E-01   .7252267E-01   .7113433E-01   .6973250E-01
   .6831304E-01   .6687169E-01   .6540381E-01   .6390428E-01   .6236737E-01
   .6078676E-01   .5915560E-01   .5746680E-01   .5571338E-01   .5388884E-01
   .5198749E-01   .5000465E-01   .4793659E-01   .4578046E-01   .4353404E-01
   .4119557E-01   .3876366E-01   .3623726E-01   .3361557E-01   .3089811E-01
   .2808466E-01   .2517536E-01   .2217078E-01   .1907201E-01   .1588068E-01
   .1259898E-01   .9229640E-02   .5775954E-02   .2241793E-02  -.1368386E-02
  -.5049618E-02  -.8796593E-02  -.1260391E-01  -.1646638E-01  -.2037929E-01
  -.2433862E-01  -.2834110E-01  -.3238427E-01  -.3646624E-01  -.4058551E-01
  -.4474055E-01  -.4892961E-01  -.5315050E-01  -.5740053E-01  -.6167649E-01
  -.6597478E-01  -.7029156E-01  -.7462299E-01  -.7896538E-01  -.8331530E-01
  -.8766970E-01  -.9202586E-01  -.9638139E-01  -.1007341E+00  -.1050821E+00
  -.1094235E+00  -.1137564E+00  -.1180796E+00  -.1223918E+00  -.1266923E+00
  -.1309810E+00  -.1352584E+00  -.1395252E+00  -.1437829E+00  -.1480327E+00
  -.1522761E+00  -.1565141E+00  -.1607474E+00  -.1649764E+00  -.1692007E+00
  -.1734196E+00  -.1776321E+00  -.1818371E+00  -.1860334E+00  -.1902198E+00
  -.1943956E+00  -.1985601E+00  -.2027128E+00  -.2068537E+00  -.2109827E+00
  -.2151000E+00  -.2192056E+00  -.2232995E+00  -.2273816E+00  -.2314516E+00
  -.2355087E+00  -.2395522E+00  -.2435808E+00  -.2475933E+00  -.2515881E+00
  -.2555636E+00  -.2595183E+00  -.2634504E+00  -.2673585E+00  -.2712411E+00
  -.2750968E+00  -.2789245E+00  -.2827235E+00  -.2864931E+00  -.2902328E+00
  -.2939426E+00  -.2976220E+00  -.3012707E+00  -.3048880E+00  -.3084731E+00
  -.3120247E+00  -.3155415E+00  -.3190222E+00  -.3224658E+00  -.3258717E+00
  -.3292400E+00  -.3325716E+00  -.3358683E+00  -.3391321E+00  -.3423656E+00
  -.3455710E+00  -.3487500E+00  -.3519031E+00  -.3550299E+00  -.3581288E+00
  -.3611974E+00  -.3642328E+00  -.3672315E+00  -.3701898E+00  -.3731041E+00
  -.3759706E+00  -.3787853E+00  -.3815449E+00  -.3842458E+00  -.3868849E+00
  -.3894593E+00  -.3919661E+00  -.3944026E+00  -.3967659E+00  -.3990531E+00
  -.4012612E+00  -.4033873E+00  -.4054285E+00  -.4073832E+00  -.4092504E+00
  -.4110312E+00  -.4127288E+00  -.4143485E+00  -.4158979E+00  -.4173862E+00
  -.4188238E+00  -.4202213E+00  -.4215890E+00  -.4229369E+00  -.4242738E+00
  -.4256079E+00  -.4269456E+00  -.4282924E+00  -.4296517E+00  -.4310255E+00
  -.4324145E+00  -.4338180E+00  -.4352350E+00  -.4366643E+00  -.4381050E+00
  -.4395564E+00  -.4410184E+00  -.4424910E+00  -.4439746E+00  -.4454693E+00
  -.4469753E+00  -.4484929E+00  -.4500218E+00  -.4515620E+00  -.4531131E+00
  -.4546750E+00  -.4562474E+00  -.4578304E+00  -.4594243E+00  -.4610301E+00
  -.4626491E+00  -.4642831E+00  -.4659345E+00  -.4676057E+00  -.4692992E+00
  -.4710172E+00  -.4727613E+00  -.4745326E+00  -.4763316E+00  -.4781581E+00
  -.4800113E+00  -.4818903E+00  -.4837940E+00  -.4857208E+00  -.4876689E+00
  -.4896361E+00  -.4916192E+00  -.4936146E+00  -.4956174E+00  -.4976218E+00
  -.4996208E+00  -.5016063E+00  -.5035697E+00  -.5055021E+00  -.5073951E+00
  -.5092416E+00  -.5110355E+00  -.5127729E+00  -.5144515E+00  -.5160708E+00
  -.5176320E+00  -.5191379E+00  -.5205927E+00  -.5220018E+00  -.5233709E+00
  -.5247065E+00  -.5260151E+00  -.5273034E+00  -.5285778E+00  -.5298449E+00
  -.5311108E+00  -.5323811E+00  -.5336616E+00  -.5349575E+00  -.5362740E+00
  -.5376164E+00  -.5389901E+00  -.5404008E+00  -.5418539E+00  -.5433551E+00
  -.5449099E+00  -.5465233E+00  -.5481998E+00  -.5499434E+00  -.5517571E+00
  -.5536431E+00  -.5556031E+00  -.5576377E+00  -.5597468E+00  -.5619297E+00
  -.5641846E+00  -.5665091E+00  -.5689003E+00  -.5713547E+00  -.5738682E+00
  -.5764361E+00  -.5790528E+00  -.5817124E+00  -.5844076E+00  -.5871311E+00
  -.5898745E+00  -.5926299E+00  -.5953889E+00  -.5981441E+00  -.6008882E+00
  -.6036145E+00  -.6063166E+00  -.6089881E+00  -.6116227E+00  -.6142140E+00
  -.6167559E+00  -.6192426E+00  -.6216691E+00  -.6240316E+00  -.6263276E+00
  -.6285562E+00  -.6307176E+00  -.6328131E+00  -.6348446E+00  -.6368143E+00
  -.6387252E+00  -.6405801E+00  -.6423822E+00  -.6441346E+00  -.6458406E+00
  -.6475031E+00  -.6491248E+00  -.6507084E+00  -.6522560E+00  -.6537694E+00
  -.6552499E+00  -.6566983E+00  -.6581149E+00  -.6594990E+00  -.6608499E+00
  -.6621661E+00  -.6634462E+00  -.6646889E+00  -.6658928E+00  -.6670574E+00
  -.6681826E+00  -.6692687E+00  -.6703170E+00  -.6713293E+00  -.6723081E+00
  -.6732563E+00  -.6741771E+00  -.6750737E+00  -.6759489E+00  -.6768054E+00
  -.6776452E+00  -.6784705E+00  -.6792835E+00  -.6800869E+00  -.6808843E+00
  -.6816803E+00  -.6824803E+00  -.6832910E+00  -.6841196E+00  -.6849736E+00
  -.6858605E+00  -.6867872E+00  -.6877600E+00  -.6887842E+00  -.6898641E+00
  -.6910028E+00  -.6922022E+00  -.6934627E+00  -.6947825E+00  -.6961582E+00
  -.6975842E+00  -.6990530E+00  -.7005564E+00  -.7020859E+00  -.7036328E+00
  -.7051890E+00  -.7067464E+00  -.7082971E+00  -.7098338E+00  -.7113490E+00
  -.7128358E+00  -.7142876E+00  -.7156983E+00  -.7170625E+00  -.7183757E+00
  -.7196347E+00  -.7208375E+00  -.7219840E+00  -.7230751E+00  -.7241134E+00
  -.7251024E+00  -.7260466E+00  -.7269516E+00  -.7278241E+00  -.7286712E+00
  -.7295005E+00  -.7303195E+00  -.7311348E+00  -.7319524E+00  -.7327770E+00
  -.7336120E+00  -.7344603E+00  -.7353241E+00  -.7362058E+00  -.7371084E+00
  -.7380357E+00  -.7389923E+00  -.7399837E+00  -.7410163E+00  -.7420963E+00
  -.7432302E+00  -.7444239E+00  -.7456826E+00  -.7470110E+00  -.7484129E+00
  -.7498914E+00  -.7514491E+00  -.7530876E+00  -.7548080E+00  -.7566104E+00
  -.7584938E+00  -.7604569E+00  -.7624973E+00  -.7646126E+00  -.7668002E+00
  -.7690577E+00  -.7713827E+00  -.7737728E+00  -.7762253E+00  -.7787370E+00
  -.7813036E+00  -.7839195E+00  -.7865778E+00  -.7892705E+00  -.7919886E+00
  -.7947224E+00  -.7974629E+00  -.8002016E+00  -.8029311E+00  -.8056454E+00
  -.8083397E+00  -.8110105E+00  -.8136557E+00  -.8162745E+00  -.8188673E+00
  -.8214355E+00  -.8239813E+00  -.8265070E+00  -.8290151E+00  -.8315076E+00
  -.8339862E+00  -.8364522E+00  -.8389060E+00  -.8413479E+00  -.8437773E+00
  -.8461934E+00  -.8485955E+00  -.8509824E+00  -.8533532E+00  -.8557071E+00
  -.8580433E+00  -.8603610E+00  -.8626600E+00  -.8649399E+00  -.8672007E+00
  -.8694425E+00  -.8716656E+00  -.8738703E+00  -.8760570E+00  -.8782260E+00
  -.8803775E+00  -.8825119E+00  -.8846290E+00  -.8867289E+00  -.8888114E+00
  -.8908764E+00  -.8929236E+00  -.8949528E+00  -.8969639E+00  -.8989569E+00
  -.9009320E+00  -.9028894E+00  -.9048299E+00  -.9067542E+00  -.9086631E+00
  -.9105573E+00  -.9124374E+00  -.9143031E+00  -.9161536E+00  -.9179867E+00
  -.9197992E+00  -.9215866E+00  -.9233432E+00  -.9250629E+00  -.9267397E+00
  -.9283679E+00  -.9299430E+00  -.9314611E+00  -.9329190E+00  -.9343138E+00
  -.9356427E+00  -.9369026E+00  -.9380906E+00  -.9392038E+00  -.9402398E+00
  -.9411964E+00  -.9420721E+00  -.9428658E+00  -.9435768E+00  -.9442047E+00
  -.9447494E+00  -.9452109E+00  -.9455894E+00  -.9458855E+00  -.9461002E+00
  -.9462349E+00  -.9462913E+00  -.9462716E+00  -.9461782E+00  -.9460142E+00
  -.9457828E+00  -.9454873E+00  -.9451313E+00  -.9447177E+00  -.9442492E+00
  -.9437278E+00  -.9431553E+00  -.9425333E+00  -.9418636E+00  -.9411487E+00
  -.9403919E+00  -.9395972E+00  -.9387690E+00  -.9379121E+00  -.9370309E+00
  -.9361288E+00  -.9352088E+00  -.9342724E+00  -.9333208E+00  -.9323547E+00
  -.9313748E+00  -.9303818E+00  -.9293766E+00  -.9283604E+00  -.9273346E+00
  -.9263006E+00  -.9252598E+00  -.9242135E+00  -.9231626E+00  -.9221080E+00
  -.9210498E+00  -.9199881E+00  -.9189222E+00  -.9178516E+00  -.9167753E+00
  -.9156921E+00  -.9146009E+00  -.9135003E+00  -.9123889E+00  -.9112651E+00
  -.9101273E+00  -.9089742E+00  -.9078044E+00  -.9066169E+00  -.9054108E+00
  -.9041859E+00  -.9029423E+00  -.9016804E+00  -.9004014E+00  -.8991066E+00
  -.8977976E+00  -.8964762E+00  -.8951441E+00  -.8938026E+00  -.8924526E+00
  -.8910941E+00  -.8897263E+00  -.8883476E+00  -.8869554E+00  -.8855462E+00
  -.8841161E+00  -.8826601E+00  -.8811726E+00  -.8796479E+00  -.8780800E+00
  -.8764634E+00  -.8747936E+00  -.8730674E+00  -.8712829E+00  -.8694399E+00
  -.8675393E+00  -.8655832E+00  -.8635739E+00  -.8615148E+00  -.8594095E+00
  -.8572624E+00  -.8550785E+00  -.8528635E+00  -.8506241E+00  -.8483670E+00
  -.8460998E+00  -.8438296E+00  -.8415633E+00  -.8393075E+00  -.8370678E+00
  -.8348496E+00  -.8326579E+00  -.8304980E+00  -.8283750E+00  -.8262947E+00
  -.8242630E+00  -.8222858E+00  -.8203685E+00  -.8185159E+00  -.8167318E+00
  -.8150189E+00  -.8133787E+00  -.8118122E+00  -.8103195E+00  -.8088996E+00
  -.8075510E+00  -.8062706E+00  -.8050545E+00  -.8038972E+00  -.8027926E+00
  -.8017332E+00  -.8007111E+00  -.7997179E+00  -.7987450E+00  -.7977838E+00
  -.7968262E+00  -.7958646E+00  -.7948922E+00  -.7939030E+00  -.7928918E+00
  -.7918542E+00  -.7907869E+00  -.7896869E+00  -.7885518E+00  -.7873793E+00
  -.7861676E+00  -.7849147E+00  -.7836193E+00  -.7822804E+00  -.7808978E+00
  -.7794716E+00  -.7780027E+00  -.7764924E+00  -.7749419E+00  -.7733523E+00
  -.7717240E+00  -.7700568E+00  -.7683498E+00  -.7666020E+00  -.7648126E+00
  -.7629816E+00  -.7611107E+00  -.7592027E+00  -.7572621E+00  -.7552938E+00
  -.7533026E+00  -.7512927E+00  -.7492665E+00  -.7472251E+00  -.7451675E+00
  -.7430920E+00  -.7409955E+00  -.7388748E+00  -.7367266E+00  -.7345476E+00
  -.7323352E+00  -.7300868E+00  -.7278007E+00  -.7254755E+00  -.7231104E+00
  -.7207053E+00  -.7182602E+00  -.7157763E+00  -.7132551E+00  -.7106990E+00
  -.7081115E+00  -.7054962E+00  -.7028576E+00  -.7001998E+00  -.6975269E+00
  -.6948425E+00  -.6921498E+00  -.6894514E+00  -.6867497E+00  -.6840469E+00
  -.6813454E+00  -.6786475E+00  -.6759561E+00  -.6732742E+00  -.6706052E+00
  -.6679525E+00  -.6653193E+00  -.6627086E+00  -.6601225E+00  -.6575620E+00
  -.6550272E+00  -.6525166E+00  -.6500278E+00  -.6475578E+00  -.6451029E+00
  -.6426596E+00  -.6402244E+00  -.6377941E+00  -.6353657E+00  -.6329362E+00
  -.6305033E+00  -.6280648E+00  -.6256189E+00  -.6231645E+00  -.6207007E+00
  -.6182272E+00  -.6157440E+00  -.6132516E+00  -.6107509E+00  -.6082433E+00
  -.6057305E+00  -.6032146E+00  -.6006980E+00  -.5981831E+00  -.5956722E+00
  -.5931678E+00  -.5906719E+00  -.5881864E+00  -.5857130E+00  -.5832533E+00
  -.5808086E+00  -.5783799E+00  -.5759682E+00  -.5735741E+00  -.5711979E+00
  -.5688400E+00  -.5665000E+00  -.5641781E+00  -.5618738E+00  -.5595873E+00
  -.5573186E+00  -.5550679E+00  -.5528356E+00  -.5506219E+00  -.5484271E+00
  -.5462510E+00  -.5440932E+00  -.5419523E+00  -.5398262E+00  -.5377120E+00
  -.5356060E+00  -.5335040E+00  -.5314015E+00  -.5292940E+00  -.5271772E+00
  -.5250475E+00  -.5229018E+00  -.5207379E+00  -.5185549E+00  -.5163528E+00
  -.5141328E+00  -.5118972E+00  -.5096487E+00  -.5073908E+00  -.5051271E+00
  -.5028614E+00  -.5005974E+00  -.4983390E+00  -.4960895E+00  -.4938521E+00
  -.4916295E+00  -.4894240E+00  -.4872373E+00  -.4850709E+00  -.4829258E+00
  -.4808029E+00  -.4787026E+00  -.4766253E+00  -.4745714E+00  -.4725411E+00
  -.4705351E+00  -.4685544E+00  -.4666004E+00  -.4646750E+00  -.4627803E+00
  -.4609187E+00  -.4590924E+00  -.4573033E+00  -.4555531E+00  -.4538427E+00
  -.4521725E+00  -.4505421E+00  -.4489508E+00  -.4473975E+00  -.4458813E+00
  -.4444015E+00  -.4429581E+00  -.4415516E+00  -.4401831E+00  -.4388536E+00
  -.4375639E+00  -.4363144E+00  -.4351045E+00  -.4339331E+00  -.4327980E+00
  -.4316966E+00  -.4306252E+00  -.4295799E+00  -.4285563E+00  -.4275494E+00
  -.4265543E+00  -.4255659E+00  -.4245790E+00  -.4235884E+00  -.4225891E+00
  -.4215757E+00  -.4205432E+00  -.4194869E+00  -.4184019E+00  -.4172839E+00
  -.4161290E+00  -.4149335E+00  -.4136944E+00  -.4124092E+00  -.4110761E+00
  -.4096942E+00  -.4082632E+00  -.4067838E+00  -.4052572E+00  -.4036847E+00
  -.4020683E+00  -.4004099E+00  -.3987117E+00  -.3969759E+00  -.3952051E+00
  -.3934020E+00  -.3915695E+00  -.3897107E+00  -.3878290E+00  -.3859282E+00
  -.3840123E+00  -.3820857E+00  -.3801531E+00  -.3782192E+00  -.3762893E+00
  -.3743683E+00  -.3724617E+00  -.3705749E+00  -.3687132E+00  -.3668819E+00
  -.3650858E+00  -.3633293E+00  -.3616157E+00  -.3599472E+00  -.3583246E+00
  -.3567473E+00  -.3552133E+00  -.3537193E+00  -.3522612E+00  -.3508342E+00
  -.3494332E+00  -.3480526E+00  -.3466866E+00  -.3453292E+00  -.3439746E+00
  -.3426174E+00  -.3412524E+00  -.3398752E+00  -.3384816E+00  -.3370681E+00
  -.3356317E+00  -.3341694E+00  -.3326789E+00  -.3311582E+00  -.3296055E+00
  -.3280191E+00  -.3263980E+00  -.3247411E+00  -.3230482E+00  -.3213192E+00
  -.3195547E+00  -.3177560E+00  -.3159244E+00  -.3140622E+00  -.3121718E+00
  -.3102561E+00  -.3083183E+00  -.3063616E+00  -.3043891E+00  -.3024034E+00
  -.3004066E+00  -.2983999E+00  -.2963840E+00  -.2943588E+00  -.2923238E+00
  -.2902782E+00  -.2882210E+00  -.2861511E+00  -.2840674E+00  -.2819691E+00
  -.2798553E+00  -.2777254E+00  -.2755787E+00  -.2734144E+00  -.2712311E+00
  -.2690271E+00  -.2668001E+00  -.2645476E+00  -.2622668E+00  -.2599547E+00
  -.2576086E+00  -.2552255E+00  -.2528028E+00  -.2503378E+00  -.2478280E+00
  -.2452711E+00  -.2426649E+00  -.2400078E+00  -.2372982E+00  -.2345351E+00
  -.2317179E+00  -.2288461E+00  -.2259196E+00  -.2229386E+00  -.2199030E+00
  -.2168131E+00  -.2136688E+00  -.2104704E+00  -.2072178E+00  -.2039110E+00
  -.2005500E+00  -.1971347E+00  -.1936649E+00  -.1901410E+00  -.1865634E+00
  -.1829330E+00  -.1792514E+00  -.1755212E+00  -.1717457E+00  -.1679288E+00
  -.1640759E+00  -.1601924E+00  -.1562847E+00  -.1523588E+00  -.1484209E+00
  -.1444761E+00  -.1405293E+00  -.1365844E+00  -.1326448E+00  -.1287133E+00
  -.1247928E+00  -.1208859E+00  -.1169957E+00  -.1131251E+00  -.1092775E+00
  -.1054563E+00  -.1016647E+00  -.9790605E-01  -.9418288E-01  -.9049728E-01
  -.8685047E-01  -.8324284E-01  -.7967391E-01  -.7614261E-01  -.7264764E-01
  -.6918785E-01  -.6576273E-01  -.6237262E-01  -.5901904E-01  -.5570465E-01
  -.5243322E-01  -.4920936E-01  -.4603819E-01  -.4292488E-01  -.3987429E-01
  -.3689039E-01  -.3397594E-01  -.3113226E-01  -.2835924E-01  -.2565558E-01
  -.2301920E-01  -.2044757E-01  -.1793795E-01  -.1548747E-01  -.1309309E-01
  -.1075152E-01  -.8459105E-02  -.6211725E-02  -.4004679E-02  -.1832694E-02
   .3099788E-03   .2429319E-02   .4531181E-02   .6620885E-02   .8702885E-02
   .1078058E-01   .1285625E-01   .1493116E-01   .1700561E-01   .1907906E-01
   .2115027E-01   .2321752E-01   .2527872E-01   .2733160E-01   .2937374E-01
   .3140258E-01   .3341552E-01   .3540991E-01   .3738319E-01   .3933292E-01
   .4125695E-01   .4315348E-01   .4502119E-01   .4685933E-01   .4866774E-01
   .5044685E-01   .5219748E-01   .5392069E-01   .5561753E-01   .5728874E-01
   .5893449E-01   .6055418E-01   .6214634E-01   .6370872E-01   .6523865E-01
   .6673346E-01   .6819097E-01   .6960988E-01   .7098993E-01   .7233200E-01
   .7363792E-01   .7491030E-01   .7615238E-01   .7736793E-01   .7856119E-01
   .7973680E-01   .8089967E-01   .8205479E-01   .8320702E-01   .8436091E-01
   .8552056E-01   .8668943E-01   .8787025E-01   .8906479E-01   .9027367E-01
   .9149626E-01   .9273069E-01   .9397388E-01   .9522169E-01   .9646918E-01
   .9771083E-01   .9894085E-01   .1001533E+00   .1013425E+00   .1025029E+00
   .1036293E+00   .1047174E+00   .1057634E+00   .1067647E+00   .1077196E+00
   .1086271E+00   .1094874E+00   .1103006E+00   .1110677E+00   .1117893E+00
   .1124664E+00   .1130999E+00   .1136910E+00   .1142406E+00   .1147500E+00
   .1152205E+00   .1156533E+00   .1160501E+00   .1164122E+00   .1167415E+00
   .1170398E+00   .1173090E+00   .1175513E+00   .1177691E+00   .1179648E+00
   .1181410E+00   .1183008E+00   .1184472E+00   .1185835E+00   .1187129E+00
   .1188388E+00   .1189641E+00   .1190918E+00   .1192244E+00   .1193646E+00
   .1195144E+00   .1196761E+00   .1198520E+00   .1200440E+00   .1202545E+00
   .1204856E+00   .1207397E+00   .1210191E+00   .1213264E+00   .1216642E+00
   .1220349E+00   .1224416E+00   .1228869E+00   .1233738E+00   .1239054E+00
   .1244848E+00   .1251152E+00   .1257996E+00   .1265413E+00   .1273432E+00
   .1282084E+00   .1291399E+00   .1301406E+00   .1312135E+00   .1323611E+00
   .1335862E+00   .1348908E+00   .1362767E+00   .1377448E+00   .1392952E+00
   .1409270E+00   .1426381E+00   .1444256E+00   .1462857E+00   .1482144E+00
   .1502072E+00   .1522595E+00   .1543665E+00   .1565234E+00   .1587251E+00
   .1609669E+00   .1632436E+00   .1655504E+00   .1678827E+00   .1702357E+00
   .1726052E+00   .1749873E+00   .1773785E+00   .1797760E+00   .1821773E+00
   .1845803E+00   .1869833E+00   .1893851E+00   .1917844E+00   .1941803E+00
   .1965720E+00   .1989587E+00   .2013396E+00   .2037137E+00   .2060804E+00
   .2084389E+00   .2107891E+00   .2131309E+00   .2154653E+00   .2177938E+00
   .2201188E+00   .2224432E+00   .2247706E+00   .2271048E+00   .2294496E+00
   .2318088E+00   .2341856E+00   .2365829E+00   .2390034E+00   .2414487E+00
   .2439204E+00   .2464192E+00   .2489452E+00   .2514977E+00   .2540752E+00
   .2566755E+00   .2592957E+00   .2619328E+00   .2645840E+00   .2672469E+00
   .2699196E+00   .2726012E+00   .2752909E+00   .2779882E+00   .2806928E+00
   .2834041E+00   .2861212E+00   .2888430E+00   .2915676E+00   .2942928E+00
   .2970161E+00   .2997345E+00   .3024444E+00   .3051423E+00   .3078240E+00
   .3104850E+00   .3131207E+00   .3157260E+00   .3182961E+00   .3208263E+00
   .3233126E+00   .3257510E+00   .3281383E+00   .3304715E+00   .3327479E+00
   .3349646E+00   .3371186E+00   .3392069E+00   .3412263E+00   .3431735E+00
   .3450454E+00   .3468391E+00   .3485522E+00   .3501828E+00   .3517291E+00
   .3531899E+00   .3545643E+00   .3558515E+00   .3570507E+00   .3581614E+00
   .3591834E+00   .3601167E+00   .3609620E+00   .3617204E+00   .3623935E+00
   .3629835E+00   .3634930E+00   .3639250E+00   .3642825E+00   .3645689E+00
   .3647873E+00   .3649409E+00   .3650328E+00   .3650659E+00   .3650428E+00
   .3649655E+00   .3648360E+00   .3646560E+00   .3644268E+00   .3641500E+00
   .3638271E+00   .3634603E+00   .3630517E+00   .3626041E+00   .3621203E+00
   .3616036E+00   .3610569E+00   .3604833E+00   .3598857E+00   .3592667E+00
   .3586293E+00   .3579761E+00   .3573102E+00   .3566352E+00   .3559549E+00
   .3552739E+00   .3545971E+00   .3539300E+00   .3532780E+00   .3526464E+00
   .3520403E+00   .3514639E+00   .3509208E+00   .3504132E+00   .3499423E+00
   .3495080E+00   .3491096E+00   .3487457E+00   .3484148E+00   .3481155E+00
   .3478467E+00   .3476071E+00   .3473956E+00   .3472111E+00   .3470520E+00
   .3469168E+00   .3468035E+00   .3467102E+00   .3466351E+00   .3465771E+00
   .3465351E+00   .3465088E+00   .3464983E+00   .3465039E+00   .3465263E+00
   .3465662E+00   .3466241E+00   .3467001E+00   .3467937E+00   .3469035E+00
   .3470277E+00   .3471635E+00   .3473080E+00   .3474583E+00   .3476117E+00
   .3477658E+00   .3479186E+00   .3480680E+00   .3482118E+00   .3483475E+00
   .3484721E+00   .3485827E+00   .3486764E+00   .3487505E+00   .3488025E+00
   .3488305E+00   .3488334E+00   .3488101E+00   .3487603E+00   .3486839E+00
   .3485811E+00   .3484524E+00   .3482987E+00   .3481210E+00   .3479205E+00
   .3476989E+00   .3474580E+00   .3472001E+00   .3469278E+00   .3466439E+00
   .3463513E+00   .3460530E+00   .3457519E+00   .3454505E+00   .3451515E+00
   .3448571E+00   .3445695E+00   .3442904E+00   .3440212E+00   .3437630E+00
   .3435164E+00   .3432818E+00   .3430594E+00   .3428491E+00   .3426511E+00
   .3424658E+00   .3422939E+00   .3421361E+00   .3419936E+00   .3418676E+00
   .3417595E+00   .3416709E+00   .3416035E+00   .3415591E+00   .3415396E+00
   .3415469E+00   .3415828E+00   .3416492E+00   .3417478E+00   .3418802E+00
   .3420476E+00   .3422512E+00   .3424922E+00   .3427714E+00   .3430896E+00
   .3434479E+00   .3438472E+00   .3442887E+00   .3447741E+00   .3453051E+00
   .3458837E+00   .3465123E+00   .3471933E+00   .3479292E+00   .3487222E+00
   .3495744E+00   .3504875E+00   .3514625E+00   .3524999E+00   .3535992E+00
   .3547591E+00   .3559771E+00   .3572499E+00   .3585730E+00   .3599411E+00
   .3613484E+00   .3627886E+00   .3642556E+00   .3657433E+00   .3672462E+00
   .3687596E+00   .3702792E+00   .3718020E+00   .3733251E+00   .3748459E+00
   .3763617E+00   .3778698E+00   .3793668E+00   .3808496E+00   .3823146E+00
   .3837582E+00   .3851769E+00   .3865676E+00   .3879273E+00   .3892536E+00
   .3905442E+00   .3917974E+00   .3930122E+00   .3941878E+00   .3953240E+00
   .3964210E+00   .3974794E+00   .3985000E+00   .3994836E+00   .4004310E+00
   .4013429E+00   .4022201E+00   .4030629E+00   .4038716E+00   .4046462E+00
   .4053863E+00   .4060913E+00   .4067603E+00   .4073916E+00   .4079835E+00
   .4085336E+00   .4090394E+00   .4094981E+00   .4099070E+00   .4102638E+00
   .4105663E+00   .4108130E+00   .4110009E+00   .4111259E+00   .4111859E+00
   .4111810E+00   .4111112E+00   .4109766E+00   .4107773E+00   .4105131E+00
   .4101836E+00   .4097882E+00   .4093262E+00   .4087968E+00   .4081992E+00
   .4075329E+00   .4067977E+00   .4059941E+00   .4051233E+00   .4041874E+00
   .4031895E+00   .4021340E+00   .4010260E+00   .3998717E+00   .3986776E+00
   .3974507E+00   .3961980E+00   .3949268E+00   .3936440E+00   .3923561E+00
   .3910691E+00   .3897880E+00   .3885172E+00   .3872602E+00   .3860198E+00
   .3847979E+00   .3835957E+00   .3824139E+00   .3812526E+00   .3801121E+00
   .3789923E+00   .3778934E+00   .3768159E+00   .3757601E+00   .3747270E+00
   .3737173E+00   .3727318E+00   .3717710E+00   .3708348E+00   .3699224E+00
   .3690320E+00   .3681603E+00   .3673028E+00   .3664536E+00   .3656058E+00
   .3647522E+00   .3638850E+00   .3629969E+00   .3620810E+00   .3611311E+00
   .3601420E+00   .3591095E+00   .3580302E+00   .3569016E+00   .3557214E+00
   .3544875E+00   .3531977E+00   .3518491E+00   .3504390E+00   .3489642E+00
   .3474219E+00   .3458095E+00   .3441251E+00   .3423676E+00   .3405373E+00
   .3386353E+00   .3366640E+00   .3346269E+00   .3325283E+00   .3303735E+00
   .3281686E+00   .3259201E+00   .3236349E+00   .3213199E+00   .3189815E+00
   .3166260E+00   .3142590E+00   .3118857E+00   .3095108E+00   .3071387E+00
   .3047733E+00   .3024183E+00   .3000773E+00   .2977532E+00   .2954491E+00
   .2931677E+00   .2909117E+00   .2886836E+00   .2864860E+00   .2843215E+00
   .2821927E+00   .2801021E+00   .2780523E+00   .2760455E+00   .2740837E+00
   .2721687E+00   .2703013E+00   .2684819E+00   .2667098E+00   .2649837E+00
   .2633015E+00   .2616609E+00   .2600594E+00   .2584952E+00   .2569671E+00
   .2554750E+00   .2540198E+00   .2526030E+00   .2512272E+00   .2498947E+00
   .2486078E+00   .2473681E+00   .2461766E+00   .2450336E+00   .2439387E+00
   .2428912E+00   .2418895E+00   .2409318E+00   .2400156E+00   .2391381E+00
   .2382961E+00   .2374862E+00   .2367048E+00   .2359485E+00   .2352134E+00
   .2344957E+00   .2337918E+00   .2330978E+00   .2324100E+00   .2317250E+00
   .2310396E+00   .2303511E+00   .2296573E+00   .2289566E+00   .2282479E+00
   .2275305E+00   .2268039E+00   .2260676E+00   .2253207E+00   .2245621E+00
   .2237906E+00   .2230043E+00   .2222014E+00   .2213801E+00   .2205385E+00
   .2196749E+00   .2187878E+00   .2178762E+00   .2169392E+00   .2159761E+00
   .2149868E+00   .2139710E+00   .2129288E+00   .2118605E+00   .2107663E+00
   .2096470E+00   .2085032E+00   .2073362E+00   .2061471E+00   .2049375E+00
   .2037087E+00   .2024625E+00   .2012002E+00   .1999235E+00   .1986338E+00
   .1973329E+00   .1960221E+00   .1947030E+00   .1933772E+00   .1920463E+00
   .1907117E+00   .1893750E+00   .1880377E+00   .1867013E+00   .1853671E+00
   .1840363E+00   .1827101E+00   .1813894E+00   .1800750E+00   .1787677E+00
   .1774680E+00   .1761766E+00   .1748941E+00   .1736209E+00   .1723576E+00
   .1711049E+00   .1698634E+00   .1686336E+00   .1674164E+00   .1662123E+00
   .1650219E+00   .1638457E+00   .1626841E+00   .1615371E+00   .1604044E+00
   .1592857E+00   .1581800E+00   .1570863E+00   .1560033E+00   .1549297E+00
   .1538640E+00   .1528051E+00   .1517516E+00   .1507023E+00   .1496563E+00
   .1486125E+00   .1475701E+00   .1465283E+00   .1454863E+00   .1444434E+00
   .1433989E+00   .1423518E+00   .1413012E+00   .1402459E+00   .1391845E+00
   .1381155E+00   .1370368E+00   .1359464E+00   .1348423E+00   .1337225E+00
   .1325855E+00   .1314302E+00   .1302566E+00   .1290652E+00   .1278574E+00
   .1266352E+00   .1254014E+00   .1241592E+00   .1229127E+00   .1216665E+00
   .1204254E+00   .1191946E+00   .1179792E+00   .1167842E+00   .1156142E+00
   .1144736E+00   .1133662E+00   .1122955E+00   .1112643E+00   .1102750E+00
   .1093289E+00   .1084271E+00   .1075696E+00   .1067558E+00   .1059843E+00
   .1052529E+00   .1045586E+00   .1038976E+00   .1032654E+00   .1026572E+00
   .1020681E+00   .1014936E+00   .1009296E+00   .1003728E+00   .9982048E-01
   .9927047E-01   .9872082E-01   .9816971E-01   .9761532E-01   .9705589E-01
   .9648970E-01   .9591517E-01   .9533092E-01   .9473581E-01   .9412902E-01
   .9350996E-01   .9287822E-01   .9223349E-01   .9157546E-01   .9090381E-01
   .9021822E-01   .8951841E-01   .8880422E-01   .8807562E-01   .8733279E-01
   .8657615E-01   .8580631E-01   .8502403E-01   .8423013E-01   .8342545E-01
   .8261076E-01   .8178673E-01   .8095393E-01   .8011283E-01   .7926382E-01
   .7840726E-01   .7754347E-01   .7667276E-01   .7579546E-01   .7491187E-01
   .7402230E-01   .7312704E-01   .7222638E-01   .7132059E-01   .7040993E-01
   .6949472E-01   .6857530E-01   .6765216E-01   .6672590E-01   .6579732E-01
   .6486743E-01   .6393744E-01   .6300872E-01   .6208276E-01   .6116109E-01
   .6024521E-01   .5933660E-01   .5843664E-01   .5754668E-01   .5666799E-01
   .5580174E-01   .5494903E-01   .5411088E-01   .5328823E-01   .5248189E-01
   .5169257E-01   .5092082E-01   .5016702E-01   .4943139E-01   .4871396E-01
   .4801464E-01   .4733320E-01   .4666940E-01   .4602295E-01   .4539355E-01
   .4478090E-01   .4418471E-01   .4360468E-01   .4304051E-01   .4249188E-01
   .4195847E-01   .4143993E-01   .4093587E-01   .4044587E-01   .3996950E-01
   .3950626E-01   .3905565E-01   .3861715E-01   .3819021E-01   .3777430E-01
   .3736887E-01   .3697337E-01   .3658724E-01   .3620992E-01   .3584081E-01
   .3547933E-01   .3512488E-01   .3477690E-01   .3443481E-01   .3409806E-01
   .3376612E-01   .3343845E-01   .3311453E-01   .3279385E-01   .3247590E-01
   .3216014E-01   .3184610E-01   .3153325E-01   .3122109E-01   .3090914E-01
   .3059689E-01   .3028387E-01   .2996963E-01   .2965376E-01   .2933589E-01
   .2901572E-01   .2869302E-01   .2836761E-01   .2803941E-01   .2770839E-01
   .2737454E-01   .2703792E-01   .2669859E-01   .2635662E-01   .2601209E-01
   .2566509E-01   .2531567E-01   .2496394E-01   .2460995E-01   .2425381E-01
   .2389562E-01   .2353553E-01   .2317374E-01   .2281050E-01   .2244615E-01
   .2208109E-01   .2171581E-01   .2135086E-01   .2098685E-01   .2062439E-01
   .2026407E-01   .1990648E-01   .1955211E-01   .1920144E-01   .1885485E-01
   .1851270E-01   .1817527E-01   .1784281E-01   .1751553E-01   .1719358E-01
   .1687710E-01   .1656619E-01   .1626094E-01   .1596141E-01   .1566765E-01
   .1537968E-01   .1509752E-01   .1482113E-01   .1455048E-01   .1428550E-01
   .1402611E-01   .1377220E-01   .1352365E-01   .1328033E-01   .1304207E-01
   .1280872E-01   .1258009E-01   .1235602E-01   .1213633E-01   .1192088E-01
   .1170951E-01   .1150210E-01   .1129851E-01   .1109865E-01   .1090239E-01
   .1070961E-01   .1052020E-01   .1033403E-01   .1015095E-01   .9970841E-02
   .9793544E-02   .9618924E-02   .9446845E-02   .9277178E-02   .9109800E-02
   .8944597E-02   .8781463E-02   .8620302E-02   .8461028E-02   .8303559E-02
   .8147819E-02   .7993732E-02   .7841222E-02   .7690217E-02   .7540646E-02
   .7392448E-02   .7245577E-02   .7100007E-02   .6955730E-02   .6812763E-02
   .6671139E-02   .6530908E-02   .6392131E-02   .6254878E-02   .6119224E-02
   .5985245E-02   .5853013E-02   .5722601E-02   .5594074E-02   .5467497E-02
   .5342925E-02   .5220413E-02   .5100008E-02   .4981754E-02   .4865694E-02
   .4751863E-02   .4640297E-02   .4531028E-02   .4424085E-02   .4319496E-02
   .4217285E-02   .4117476E-02   .4020086E-02   .3925129E-02   .3832615E-02
   .3742547E-02   .3654924E-02   .3569741E-02   .3486989E-02   .3406654E-02
   .3328723E-02   .3253180E-02   .3180006E-02   .3109183E-02   .3040688E-02
   .2974501E-02   .2910598E-02   .2848954E-02   .2789543E-02   .2732340E-02
   .2677316E-02   .2624445E-02   .2573699E-02   .2525050E-02   .2478472E-02
   .2433936E-02   .2391415E-02   .2350882E-02   .2312310E-02   .2275672E-02
   .2240940E-02   .2208089E-02   .2177090E-02   .2147918E-02   .2120545E-02
   .2094944E-02   .2071089E-02   .2048952E-02   .2028507E-02   .2009728E-02
   .1992586E-02   .1977055E-02   .1963109E-02   .1950719E-02   .1939859E-02
   .1930503E-02   .1922622E-02   .1916189E-02   .1911178E-02   .1907561E-02
   .1905311E-02   .1904401E-02   .1904804E-02   .1906492E-02   .1909438E-02
