PEER NGA STRONG MOTION DATABASE RECORD
San Fernando, 2/9/1971, Buena Vista - Taft, 180
DISPLACEMENT TIME SERIES IN UNITS OF CM
NPTS=   5330, DT=   .0050 SEC,                                             
   .0000000E+00   .2441743E-04   .9771146E-04   .2199987E-03   .3914566E-03
   .6123059E-03   .8827842E-03   .1203110E-02   .1573449E-02   .1993885E-02
   .2464403E-02   .2984889E-02   .3555126E-02   .4174810E-02   .4843568E-02
   .5561003E-02   .6326744E-02   .7140514E-02   .8002205E-02   .8911954E-02
   .9870201E-02   .1087773E-01   .1193566E-01   .1304547E-01   .1420898E-01
   .1542837E-01   .1670609E-01   .1804485E-01   .1944751E-01   .2091702E-01
   .2245635E-01   .2406851E-01   .2575649E-01   .2752327E-01   .2937181E-01
   .3130497E-01   .3332550E-01   .3543587E-01   .3763817E-01   .3993395E-01
   .4232401E-01   .4480819E-01   .4738524E-01   .5005276E-01   .5280718E-01
   .5564395E-01   .5855773E-01   .6154244E-01   .6459125E-01   .6769659E-01
   .7085004E-01   .7404232E-01   .7726344E-01   .8050283E-01   .8374979E-01
   .8699390E-01   .9022559E-01   .9343659E-01   .9662020E-01   .9977149E-01
   .1028873E+00   .1059663E+00   .1090089E+00   .1120176E+00   .1149967E+00
   .1179520E+00   .1208912E+00   .1238232E+00   .1267575E+00   .1297045E+00
   .1326743E+00   .1356763E+00   .1387188E+00   .1418081E+00   .1449484E+00
   .1481412E+00   .1513855E+00   .1546775E+00   .1580105E+00   .1613762E+00
   .1647642E+00   .1681631E+00   .1715607E+00   .1749447E+00   .1783036E+00
   .1816270E+00   .1849068E+00   .1881380E+00   .1913186E+00   .1944499E+00
   .1975365E+00   .2005846E+00   .2036015E+00   .2065951E+00   .2095728E+00
   .2125423E+00   .2155110E+00   .2184863E+00   .2214760E+00   .2244879E+00
   .2275299E+00   .2306096E+00   .2337345E+00   .2369115E+00   .2401468E+00
   .2434464E+00   .2468162E+00   .2502618E+00   .2537886E+00   .2574013E+00
   .2611031E+00   .2648952E+00   .2687756E+00   .2727388E+00   .2767752E+00
   .2808711E+00   .2850093E+00   .2891699E+00   .2933315E+00   .2974726E+00
   .3015730E+00   .3056149E+00   .3095840E+00   .3134695E+00   .3172641E+00
   .3209631E+00   .3245639E+00   .3280650E+00   .3314660E+00   .3347667E+00
   .3379674E+00   .3410683E+00   .3440702E+00   .3469743E+00   .3497823E+00
   .3524968E+00   .3551209E+00   .3576583E+00   .3601132E+00   .3624900E+00
   .3647931E+00   .3670267E+00   .3691940E+00   .3712964E+00   .3733327E+00
   .3752990E+00   .3771886E+00   .3789927E+00   .3807015E+00   .3823052E+00
   .3837953E+00   .3851652E+00   .3864115E+00   .3875340E+00   .3885366E+00
   .3894268E+00   .3902160E+00   .3909190E+00   .3915534E+00   .3921399E+00
   .3927014E+00   .3932628E+00   .3938507E+00   .3944925E+00   .3952156E+00
   .3960464E+00   .3970093E+00   .3981249E+00   .3994095E+00   .4008743E+00
   .4025244E+00   .4043587E+00   .4063702E+00   .4085457E+00   .4108670E+00
   .4133116E+00   .4158531E+00   .4184626E+00   .4211094E+00   .4237622E+00
   .4263894E+00   .4289602E+00   .4314455E+00   .4338182E+00   .4360544E+00
   .4381338E+00   .4400402E+00   .4417615E+00   .4432900E+00   .4446209E+00
   .4457516E+00   .4466811E+00   .4474092E+00   .4479365E+00   .4482642E+00
   .4483943E+00   .4483296E+00   .4480737E+00   .4476308E+00   .4470052E+00
   .4462016E+00   .4452245E+00   .4440780E+00   .4427666E+00   .4412941E+00
   .4396643E+00   .4378803E+00   .4359450E+00   .4338606E+00   .4316291E+00
   .4292519E+00   .4267308E+00   .4240681E+00   .4212673E+00   .4183346E+00
   .4152792E+00   .4121141E+00   .4088566E+00   .4055280E+00   .4021526E+00
   .3987580E+00   .3953736E+00   .3920304E+00   .3887596E+00   .3855920E+00
   .3825572E+00   .3796823E+00   .3769916E+00   .3745057E+00   .3722408E+00
   .3702089E+00   .3684166E+00   .3668652E+00   .3655510E+00   .3644658E+00
   .3635970E+00   .3629286E+00   .3624414E+00   .3621138E+00   .3619221E+00
   .3618416E+00   .3618467E+00   .3619124E+00   .3620147E+00   .3621319E+00
   .3622452E+00   .3623388E+00   .3623996E+00   .3624168E+00   .3623811E+00
   .3622835E+00   .3621147E+00   .3618633E+00   .3615159E+00   .3610558E+00
   .3604640E+00   .3597197E+00   .3588018E+00   .3576895E+00   .3563637E+00
   .3548084E+00   .3530111E+00   .3509631E+00   .3486593E+00   .3460977E+00
   .3432799E+00   .3402107E+00   .3368977E+00   .3333515E+00   .3295850E+00
   .3256137E+00   .3214550E+00   .3171288E+00   .3126570E+00   .3080636E+00
   .3033738E+00   .2986146E+00   .2938130E+00   .2889963E+00   .2841912E+00
   .2794230E+00   .2747154E+00   .2700897E+00   .2655647E+00   .2611566E+00
   .2568789E+00   .2527429E+00   .2487581E+00   .2449321E+00   .2412708E+00
   .2377782E+00   .2344561E+00   .2313043E+00   .2283206E+00   .2255017E+00
   .2228435E+00   .2203420E+00   .2179941E+00   .2157984E+00   .2137558E+00
   .2118698E+00   .2101455E+00   .2085897E+00   .2072089E+00   .2060094E+00
   .2049954E+00   .2041686E+00   .2035273E+00   .2030654E+00   .2027726E+00
   .2026340E+00   .2026310E+00   .2027419E+00   .2029422E+00   .2032053E+00
   .2035023E+00   .2038030E+00   .2040758E+00   .2042883E+00   .2044089E+00
   .2044066E+00   .2042521E+00   .2039176E+00   .2033773E+00   .2026077E+00
   .2015880E+00   .2003007E+00   .1987326E+00   .1968752E+00   .1947259E+00
   .1922888E+00   .1895746E+00   .1866010E+00   .1833924E+00   .1799799E+00
   .1764008E+00   .1726971E+00   .1689146E+00   .1651001E+00   .1613003E+00
   .1575590E+00   .1539161E+00   .1504070E+00   .1470620E+00   .1439063E+00
   .1409594E+00   .1382350E+00   .1357408E+00   .1334773E+00   .1314383E+00
   .1296110E+00   .1279765E+00   .1265115E+00   .1251886E+00   .1239775E+00
   .1228467E+00   .1217642E+00   .1206989E+00   .1196223E+00   .1185095E+00
   .1173402E+00   .1160989E+00   .1147749E+00   .1133615E+00   .1118554E+00
   .1102563E+00   .1085659E+00   .1067878E+00   .1049267E+00   .1029886E+00
   .1009803E+00   .9890937E-01   .9678453E-01   .9461497E-01   .9241042E-01
   .9018076E-01   .8793577E-01   .8568469E-01   .8343585E-01   .8119624E-01
   .7897115E-01   .7676409E-01   .7457674E-01   .7240913E-01   .7025984E-01
   .6812646E-01   .6600618E-01   .6389666E-01   .6179672E-01   .5970701E-01
   .5763027E-01   .5557135E-01   .5353684E-01   .5153460E-01   .4957330E-01
   .4766179E-01   .4580858E-01   .4402139E-01   .4230690E-01   .4067047E-01
   .3911586E-01   .3764495E-01   .3625752E-01   .3495122E-01   .3372174E-01
   .3256301E-01   .3146752E-01   .3042655E-01   .2943042E-01   .2846853E-01
   .2752932E-01   .2660010E-01   .2566699E-01   .2471500E-01   .2372839E-01
   .2269133E-01   .2158890E-01   .2040810E-01   .1913873E-01   .1777386E-01
   .1631007E-01   .1474742E-01   .1308918E-01   .1134126E-01   .9511545E-02
   .7609225E-02   .5644329E-02   .3627523E-02   .1570019E-02  -.5164123E-03
  -.2619436E-02  -.4726218E-02  -.6823642E-02  -.8898714E-02  -.1093905E-01
  -.1293334E-01  -.1487175E-01  -.1674626E-01  -.1855102E-01  -.2028276E-01
  -.2194095E-01  -.2352778E-01  -.2504786E-01  -.2650795E-01  -.2791660E-01
  -.2928381E-01  -.3062077E-01  -.3193957E-01  -.3325292E-01  -.3457374E-01
  -.3591481E-01  -.3728826E-01  -.3870503E-01  -.4017442E-01  -.4170359E-01
  -.4329725E-01  -.4495725E-01  -.4668215E-01  -.4846687E-01  -.5030266E-01
  -.5217757E-01  -.5407717E-01  -.5598534E-01  -.5788494E-01  -.5975837E-01
  -.6158806E-01  -.6335677E-01  -.6504778E-01  -.6664484E-01  -.6813227E-01
  -.6949506E-01  -.7071938E-01  -.7179311E-01  -.7270665E-01  -.7345375E-01
  -.7403234E-01  -.7444510E-01  -.7469940E-01  -.7480657E-01  -.7478081E-01
  -.7463833E-01  -.7439680E-01  -.7407516E-01  -.7369337E-01  -.7327231E-01
  -.7283334E-01  -.7239772E-01  -.7198557E-01  -.7161482E-01  -.7130011E-01
  -.7105216E-01  -.7087746E-01  -.7077829E-01  -.7075327E-01  -.7079824E-01
  -.7090737E-01  -.7107390E-01  -.7129061E-01  -.7155010E-01  -.7184471E-01
  -.7216636E-01  -.7250626E-01  -.7285460E-01  -.7320035E-01  -.7353128E-01
  -.7383411E-01  -.7409490E-01  -.7429942E-01  -.7443354E-01  -.7448363E-01
  -.7443695E-01  -.7428185E-01  -.7400793E-01  -.7360597E-01  -.7306798E-01
  -.7238727E-01  -.7155870E-01  -.7057902E-01  -.6944736E-01  -.6816569E-01
  -.6673913E-01  -.6517599E-01  -.6348755E-01  -.6168771E-01  -.5979246E-01
  -.5781913E-01  -.5578552E-01  -.5370907E-01  -.5160605E-01  -.4949088E-01
  -.4737553E-01  -.4526930E-01  -.4317892E-01  -.4110913E-01  -.3906335E-01
  -.3704440E-01  -.3505488E-01  -.3309753E-01  -.3117541E-01  -.2929202E-01
  -.2745126E-01  -.2565737E-01  -.2391477E-01  -.2222790E-01  -.2060101E-01
  -.1903815E-01  -.1754327E-01  -.1612055E-01  -.1477487E-01  -.1351225E-01
  -.1234031E-01  -.1126839E-01  -.1030734E-01  -.9468951E-02  -.8765070E-02
  -.8206582E-02  -.7802270E-02  -.7557756E-02  -.7474727E-02  -.7550710E-02
  -.7779512E-02  -.8152186E-02  -.8658031E-02  -.9285286E-02  -.1002150E-01
  -.1085365E-01  -.1176810E-01  -.1275052E-01  -.1378590E-01  -.1485865E-01
  -.1595298E-01  -.1705329E-01  -.1814460E-01  -.1921287E-01  -.2024531E-01
  -.2123063E-01  -.2215919E-01  -.2302310E-01  -.2381613E-01  -.2453371E-01
  -.2517291E-01  -.2573265E-01  -.2621376E-01  -.2661903E-01  -.2695315E-01
  -.2722258E-01  -.2743508E-01  -.2759920E-01  -.2772381E-01  -.2781774E-01
  -.2788960E-01  -.2794740E-01  -.2799814E-01  -.2804722E-01  -.2809774E-01
  -.2814990E-01  -.2820070E-01  -.2824407E-01  -.2827132E-01  -.2827174E-01
  -.2823299E-01  -.2814149E-01  -.2798270E-01  -.2774141E-01  -.2740202E-01
  -.2694875E-01  -.2636607E-01  -.2563906E-01  -.2475391E-01  -.2369841E-01
  -.2246252E-01  -.2103890E-01  -.1942352E-01  -.1761608E-01  -.1562017E-01
  -.1344331E-01  -.1109664E-01  -.8594346E-02  -.5952873E-02  -.3190105E-02
  -.3245937E-03   .2625270E-02   .5642052E-02   .8709908E-02   .1181498E-01
   .1494553E-01   .1809189E-01   .2124613E-01   .2440160E-01   .2755253E-01
   .3069385E-01   .3382142E-01   .3693226E-01   .4002487E-01   .4309922E-01
   .4615668E-01   .4919978E-01   .5223191E-01   .5525664E-01   .5827716E-01
   .6129561E-01   .6431277E-01   .6732780E-01   .7033818E-01   .7333970E-01
   .7632664E-01   .7929197E-01   .8222777E-01   .8512570E-01   .8797740E-01
   .9077486E-01   .9351064E-01   .9617799E-01   .9877098E-01   .1012845E+00
   .1037145E+00   .1060576E+00   .1083114E+00   .1104744E+00   .1125457E+00
   .1145257E+00   .1164152E+00   .1182163E+00   .1199316E+00   .1215644E+00
   .1231186E+00   .1245983E+00   .1260078E+00   .1273517E+00   .1286347E+00
   .1298619E+00   .1310386E+00   .1321709E+00   .1332649E+00   .1343275E+00
   .1353661E+00   .1363880E+00   .1374011E+00   .1384129E+00   .1394310E+00
   .1404627E+00   .1415151E+00   .1425954E+00   .1437102E+00   .1448663E+00
   .1460706E+00   .1473301E+00   .1486521E+00   .1500439E+00   .1515131E+00
   .1530665E+00   .1547104E+00   .1564491E+00   .1582850E+00   .1602179E+00
   .1622455E+00   .1643630E+00   .1665642E+00   .1688422E+00   .1711896E+00
   .1735998E+00   .1760674E+00   .1785892E+00   .1811650E+00   .1837979E+00
   .1864941E+00   .1892625E+00   .1921137E+00   .1950597E+00   .1981127E+00
   .2012845E+00   .2045857E+00   .2080244E+00   .2116060E+00   .2153318E+00
   .2191994E+00   .2232020E+00   .2273289E+00   .2315651E+00   .2358924E+00
   .2402901E+00   .2447357E+00   .2492060E+00   .2536773E+00   .2581259E+00
   .2625287E+00   .2668632E+00   .2711076E+00   .2752405E+00   .2792403E+00
   .2830855E+00   .2867551E+00   .2902296E+00   .2934921E+00   .2965291E+00
   .2993308E+00   .3018915E+00   .3042098E+00   .3062877E+00   .3081308E+00
   .3097473E+00   .3111477E+00   .3123446E+00   .3133525E+00   .3141871E+00
   .3148656E+00   .3154059E+00   .3158267E+00   .3161475E+00   .3163883E+00
   .3165694E+00   .3167115E+00   .3168349E+00   .3169594E+00   .3171036E+00
   .3172842E+00   .3175158E+00   .3178101E+00   .3181759E+00   .3186184E+00
   .3191385E+00   .3197327E+00   .3203929E+00   .3211065E+00   .3218573E+00
   .3226262E+00   .3233933E+00   .3241381E+00   .3248419E+00   .3254884E+00
   .3260655E+00   .3265657E+00   .3269865E+00   .3273297E+00   .3275999E+00
   .3278034E+00   .3279475E+00   .3280399E+00   .3280881E+00   .3280999E+00
   .3280830E+00   .3280449E+00   .3279932E+00   .3279349E+00   .3278766E+00
   .3278233E+00   .3277790E+00   .3277458E+00   .3277245E+00   .3277148E+00
   .3277158E+00   .3277262E+00   .3277449E+00   .3277709E+00   .3278037E+00
   .3278435E+00   .3278908E+00   .3279469E+00   .3280140E+00   .3280947E+00
   .3281920E+00   .3283094E+00   .3284507E+00   .3286194E+00   .3288188E+00
   .3290520E+00   .3293209E+00   .3296272E+00   .3299717E+00   .3303551E+00
   .3307775E+00   .3312395E+00   .3317414E+00   .3322835E+00   .3328661E+00
   .3334894E+00   .3341530E+00   .3348562E+00   .3355971E+00   .3363731E+00
   .3371801E+00   .3380123E+00   .3388631E+00   .3397243E+00   .3405876E+00
   .3414446E+00   .3422871E+00   .3431080E+00   .3439007E+00   .3446598E+00
   .3453809E+00   .3460610E+00   .3466985E+00   .3472938E+00   .3478494E+00
   .3483698E+00   .3488616E+00   .3493332E+00   .3497940E+00   .3502546E+00
   .3507253E+00   .3512165E+00   .3517382E+00   .3522992E+00   .3529077E+00
   .3535711E+00   .3542965E+00   .3550909E+00   .3559609E+00   .3569133E+00
   .3579544E+00   .3590897E+00   .3603239E+00   .3616600E+00   .3630997E+00
   .3646428E+00   .3662873E+00   .3680296E+00   .3698645E+00   .3717853E+00
   .3737841E+00   .3758525E+00   .3779817E+00   .3801628E+00   .3823869E+00
   .3846453E+00   .3869291E+00   .3892302E+00   .3915410E+00   .3938552E+00
   .3961677E+00   .3984754E+00   .4007763E+00   .4030698E+00   .4053561E+00
   .4076360E+00   .4099103E+00   .4121798E+00   .4144451E+00   .4167063E+00
   .4189634E+00   .4212164E+00   .4234659E+00   .4257130E+00   .4279604E+00
   .4302115E+00   .4324703E+00   .4347405E+00   .4370251E+00   .4393256E+00
   .4416419E+00   .4439730E+00   .4463166E+00   .4486697E+00   .4510282E+00
   .4533872E+00   .4557406E+00   .4580808E+00   .4603985E+00   .4626829E+00
   .4649210E+00   .4670989E+00   .4692013E+00   .4712126E+00   .4731179E+00
   .4749035E+00   .4765579E+00   .4780712E+00   .4794365E+00   .4806496E+00
   .4817092E+00   .4826172E+00   .4833783E+00   .4839996E+00   .4844896E+00
   .4848585E+00   .4851172E+00   .4852776E+00   .4853526E+00   .4853561E+00
   .4853025E+00   .4852062E+00   .4850812E+00   .4849402E+00   .4847949E+00
   .4846562E+00   .4845339E+00   .4844372E+00   .4843738E+00   .4843492E+00
   .4843665E+00   .4844253E+00   .4845226E+00   .4846526E+00   .4848076E+00
   .4849792E+00   .4851583E+00   .4853359E+00   .4855029E+00   .4856506E+00
   .4857709E+00   .4858565E+00   .4859010E+00   .4858995E+00   .4858489E+00
   .4857486E+00   .4856008E+00   .4854109E+00   .4851871E+00   .4849401E+00
   .4846821E+00   .4844265E+00   .4841868E+00   .4839754E+00   .4838035E+00
   .4836801E+00   .4836122E+00   .4836046E+00   .4836596E+00   .4837772E+00
   .4839555E+00   .4841900E+00   .4844744E+00   .4848000E+00   .4851559E+00
   .4855290E+00   .4859049E+00   .4862685E+00   .4866041E+00   .4868958E+00
   .4871276E+00   .4872831E+00   .4873461E+00   .4873011E+00   .4871341E+00
   .4868336E+00   .4863912E+00   .4858012E+00   .4850610E+00   .4841700E+00
   .4831303E+00   .4819455E+00   .4806214E+00   .4791655E+00   .4775878E+00
   .4759002E+00   .4741172E+00   .4722562E+00   .4703366E+00   .4683802E+00
   .4664107E+00   .4644521E+00   .4625285E+00   .4606627E+00   .4588749E+00
   .4571823E+00   .4555982E+00   .4541325E+00   .4527915E+00   .4515790E+00
   .4504970E+00   .4495459E+00   .4487252E+00   .4480327E+00   .4474649E+00
   .4470165E+00   .4466806E+00   .4464486E+00   .4463107E+00   .4462564E+00
   .4462748E+00   .4463554E+00   .4464883E+00   .4466646E+00   .4468762E+00
   .4471162E+00   .4473785E+00   .4476584E+00   .4479521E+00   .4482569E+00
   .4485708E+00   .4488920E+00   .4492178E+00   .4495433E+00   .4498611E+00
   .4501597E+00   .4504248E+00   .4506387E+00   .4507818E+00   .4508333E+00
   .4507725E+00   .4505793E+00   .4502361E+00   .4497286E+00   .4490463E+00
   .4481827E+00   .4471341E+00   .4458987E+00   .4444759E+00   .4428654E+00
   .4410682E+00   .4390864E+00   .4369245E+00   .4345892E+00   .4320901E+00
   .4294386E+00   .4266476E+00   .4237301E+00   .4206992E+00   .4175674E+00
   .4143470E+00   .4110498E+00   .4076880E+00   .4042733E+00   .4008182E+00
   .3973354E+00   .3938383E+00   .3903412E+00   .3868596E+00   .3834096E+00
   .3800077E+00   .3766705E+00   .3734130E+00   .3702487E+00   .3671891E+00
   .3642440E+00   .3614222E+00   .3587317E+00   .3561796E+00   .3537722E+00
   .3515148E+00   .3494106E+00   .3474610E+00   .3456647E+00   .3440174E+00
   .3425120E+00   .3411389E+00   .3398860E+00   .3387387E+00   .3376807E+00
   .3366936E+00   .3357575E+00   .3348511E+00   .3339523E+00   .3330388E+00
   .3320881E+00   .3310781E+00   .3299869E+00   .3287930E+00   .3274756E+00
   .3260149E+00   .3243928E+00   .3225932E+00   .3206033E+00   .3184139E+00
   .3160201E+00   .3134217E+00   .3106225E+00   .3076300E+00   .3044541E+00
   .3011064E+00   .2975997E+00   .2939482E+00   .2901667E+00   .2862709E+00
   .2822768E+00   .2782003E+00   .2740568E+00   .2698611E+00   .2656268E+00
   .2613662E+00   .2570904E+00   .2528085E+00   .2485277E+00   .2442540E+00
   .2399912E+00   .2357419E+00   .2315069E+00   .2272862E+00   .2230786E+00
   .2188829E+00   .2146975E+00   .2105207E+00   .2063502E+00   .2021831E+00
   .1980155E+00   .1938427E+00   .1896590E+00   .1854592E+00   .1812387E+00
   .1769949E+00   .1727270E+00   .1684367E+00   .1641274E+00   .1598039E+00
   .1554717E+00   .1511369E+00   .1468059E+00   .1424851E+00   .1381808E+00
   .1338991E+00   .1296458E+00   .1254254E+00   .1212414E+00   .1170958E+00
   .1129893E+00   .1089208E+00   .1048884E+00   .1008887E+00   .9691785E-01
   .9297075E-01   .8904162E-01   .8512347E-01   .8120764E-01   .7728342E-01
   .7333801E-01   .6935698E-01   .6532538E-01   .6122922E-01   .5705679E-01
   .5279943E-01   .4845186E-01   .4401219E-01   .3948174E-01   .3486447E-01
   .3016636E-01   .2539468E-01   .2055741E-01   .1566267E-01   .1071839E-01
   .5732229E-02   .7116342E-03  -.4335893E-02  -.9402522E-02  -.1447981E-01
  -.1955849E-01  -.2462844E-01  -.2967862E-01  -.3469710E-01  -.3967109E-01
  -.4458697E-01  -.4943050E-01  -.5418710E-01  -.5884240E-01  -.6338291E-01
  -.6779672E-01  -.7207416E-01  -.7620850E-01  -.8019670E-01  -.8404014E-01
  -.8774522E-01  -.9132335E-01  -.9479032E-01  -.9816528E-01  -.1014696E+00
  -.1047257E+00  -.1079562E+00  -.1111831E+00  -.1144276E+00  -.1177103E+00
  -.1210509E+00  -.1244680E+00  -.1279794E+00  -.1316013E+00  -.1353476E+00
  -.1392293E+00  -.1432540E+00  -.1474252E+00  -.1517428E+00  -.1562039E+00
  -.1608024E+00  -.1655302E+00  -.1703774E+00  -.1753330E+00  -.1803847E+00
  -.1855198E+00  -.1907253E+00  -.1959878E+00  -.2012949E+00  -.2066347E+00
  -.2119961E+00  -.2173686E+00  -.2227416E+00  -.2281050E+00  -.2334483E+00
  -.2387612E+00  -.2440339E+00  -.2492571E+00  -.2544227E+00  -.2595238E+00
  -.2645550E+00  -.2695125E+00  -.2743938E+00  -.2791985E+00  -.2839273E+00
  -.2885825E+00  -.2931675E+00  -.2976866E+00  -.3021453E+00  -.3065500E+00
  -.3109078E+00  -.3152268E+00  -.3195153E+00  -.3237822E+00  -.3280359E+00
  -.3322845E+00  -.3365345E+00  -.3407909E+00  -.3450558E+00  -.3493290E+00
  -.3536068E+00  -.3578834E+00  -.3621503E+00  -.3663972E+00  -.3706118E+00
  -.3747809E+00  -.3788904E+00  -.3829266E+00  -.3868763E+00  -.3907282E+00
  -.3944733E+00  -.3981053E+00  -.4016202E+00  -.4050165E+00  -.4082942E+00
  -.4114545E+00  -.4144999E+00  -.4174333E+00  -.4202582E+00  -.4229777E+00
  -.4255948E+00  -.4281116E+00  -.4305298E+00  -.4328502E+00  -.4350734E+00
  -.4371995E+00  -.4392287E+00  -.4411615E+00  -.4429993E+00  -.4447442E+00
  -.4464000E+00  -.4479722E+00  -.4494679E+00  -.4508957E+00  -.4522655E+00
  -.4535878E+00  -.4548743E+00  -.4561366E+00  -.4573868E+00  -.4586365E+00
  -.4598965E+00  -.4611762E+00  -.4624827E+00  -.4638206E+00  -.4651917E+00
  -.4665950E+00  -.4680272E+00  -.4694833E+00  -.4709572E+00  -.4724417E+00
  -.4739280E+00  -.4754060E+00  -.4768641E+00  -.4782896E+00  -.4796685E+00
  -.4809858E+00  -.4822260E+00  -.4833733E+00  -.4844126E+00  -.4853295E+00
  -.4861115E+00  -.4867486E+00  -.4872340E+00  -.4875647E+00  -.4877422E+00
  -.4877719E+00  -.4876629E+00  -.4874274E+00  -.4870803E+00  -.4866392E+00
  -.4861235E+00  -.4855541E+00  -.4849522E+00  -.4843374E+00  -.4837271E+00
  -.4831350E+00  -.4825707E+00  -.4820397E+00  -.4815432E+00  -.4810790E+00
  -.4806423E+00  -.4802268E+00  -.4798256E+00  -.4794317E+00  -.4790379E+00
  -.4786375E+00  -.4782240E+00  -.4777911E+00  -.4773329E+00  -.4768439E+00
  -.4763192E+00  -.4757546E+00  -.4751467E+00  -.4744926E+00  -.4737905E+00
  -.4730385E+00  -.4722354E+00  -.4713797E+00  -.4704695E+00  -.4695019E+00
  -.4684731E+00  -.4673780E+00  -.4662107E+00  -.4649654E+00  -.4636373E+00
  -.4622243E+00  -.4607275E+00  -.4591514E+00  -.4575039E+00  -.4557947E+00
  -.4540343E+00  -.4522338E+00  -.4504033E+00  -.4485520E+00  -.4466878E+00
  -.4448166E+00  -.4429432E+00  -.4410704E+00  -.4391997E+00  -.4373306E+00
  -.4354616E+00  -.4335899E+00  -.4317123E+00  -.4298251E+00  -.4279245E+00
  -.4260060E+00  -.4240650E+00  -.4220962E+00  -.4200935E+00  -.4180506E+00
  -.4159607E+00  -.4138171E+00  -.4116128E+00  -.4093411E+00  -.4069954E+00
  -.4045694E+00  -.4020571E+00  -.3994524E+00  -.3967500E+00  -.3939447E+00
  -.3910320E+00  -.3880087E+00  -.3848731E+00  -.3816256E+00  -.3782692E+00
  -.3748098E+00  -.3712560E+00  -.3676189E+00  -.3639116E+00  -.3601494E+00
  -.3563496E+00  -.3525313E+00  -.3487155E+00  -.3449246E+00  -.3411827E+00
  -.3375147E+00  -.3339459E+00  -.3305016E+00  -.3272054E+00  -.3240790E+00
  -.3211412E+00  -.3184069E+00  -.3158868E+00  -.3135867E+00  -.3115081E+00
  -.3096475E+00  -.3079975E+00  -.3065469E+00  -.3052816E+00  -.3041844E+00
  -.3032357E+00  -.3024134E+00  -.3016934E+00  -.3010500E+00  -.3004559E+00
  -.2998831E+00  -.2993024E+00  -.2986846E+00  -.2980002E+00  -.2972207E+00
  -.2963187E+00  -.2952687E+00  -.2940479E+00  -.2926358E+00  -.2910151E+00
  -.2891707E+00  -.2870906E+00  -.2847656E+00  -.2821897E+00  -.2793598E+00
  -.2762763E+00  -.2729433E+00  -.2693688E+00  -.2655648E+00  -.2615476E+00
  -.2573372E+00  -.2529571E+00  -.2484327E+00  -.2437900E+00  -.2390554E+00
  -.2342541E+00  -.2294106E+00  -.2245481E+00  -.2196887E+00  -.2148529E+00
  -.2100600E+00  -.2053277E+00  -.2006716E+00  -.1961053E+00  -.1916399E+00
  -.1872831E+00  -.1830399E+00  -.1789115E+00  -.1748966E+00  -.1709910E+00
  -.1671888E+00  -.1634826E+00  -.1598642E+00  -.1563252E+00  -.1528571E+00
  -.1494516E+00  -.1461013E+00  -.1427991E+00  -.1395389E+00  -.1363149E+00
  -.1331218E+00  -.1299546E+00  -.1268080E+00  -.1236763E+00  -.1205534E+00
  -.1174327E+00  -.1143076E+00  -.1111721E+00  -.1080212E+00  -.1048519E+00
  -.1016634E+00  -.9845747E-01  -.9523850E-01  -.9201368E-01  -.8879286E-01
  -.8558812E-01  -.8241312E-01  -.7928224E-01  -.7620973E-01  -.7320866E-01
  -.7029004E-01  -.6746196E-01  -.6472912E-01  -.6209259E-01  -.5954996E-01
  -.5709561E-01  -.5472119E-01  -.5241627E-01  -.5016924E-01  -.4796833E-01
  -.4580245E-01  -.4366168E-01  -.4153737E-01  -.3942194E-01  -.3730854E-01
  -.3519086E-01  -.3306290E-01  -.3091882E-01  -.2875296E-01  -.2655972E-01
  -.2433372E-01  -.2206983E-01  -.1976328E-01  -.1740977E-01  -.1500549E-01
  -.1254707E-01  -.1003160E-01  -.7456543E-02  -.4819697E-02  -.2119152E-02
   .6467983E-03   .3479721E-02   .6381005E-02   .9351637E-02   .1239177E-01
   .1550014E-01   .1867342E-01   .2190569E-01   .2518812E-01   .2850915E-01
   .3185496E-01   .3521020E-01   .3855876E-01   .4188458E-01   .4517239E-01
   .4840830E-01   .5158031E-01   .5467858E-01   .5769551E-01   .6062554E-01
   .6346479E-01   .6621073E-01   .6886183E-01   .7141733E-01   .7387681E-01
   .7623992E-01   .7850618E-01   .8067489E-01   .8274516E-01   .8471609E-01
   .8658710E-01   .8835831E-01   .9003100E-01   .9160811E-01   .9309449E-01
   .9449697E-01   .9582411E-01   .9708576E-01   .9829242E-01   .9945444E-01
   .1005811E+00   .1016799E+00   .1027556E+00   .1038103E+00   .1048433E+00
   .1058515E+00   .1068301E+00   .1077724E+00   .1086707E+00   .1095159E+00
   .1102979E+00   .1110056E+00   .1116271E+00   .1121497E+00   .1125605E+00
   .1128469E+00   .1129974E+00   .1130026E+00   .1128558E+00   .1125542E+00
   .1120994E+00   .1114976E+00   .1107589E+00   .1098964E+00   .1089259E+00
   .1078641E+00   .1067291E+00   .1055385E+00   .1043097E+00   .1030591E+00
   .1018019E+00   .1005516E+00   .9932055E-01   .9811932E-01   .9695681E-01
   .9583999E-01   .9477372E-01   .9376067E-01   .9280135E-01   .9189417E-01
   .9103560E-01   .9022063E-01   .8944322E-01   .8869693E-01   .8797536E-01
   .8727250E-01   .8658314E-01   .8590315E-01   .8522987E-01   .8456237E-01
   .8390154E-01   .8324993E-01   .8261119E-01   .8198940E-01   .8138837E-01
   .8081120E-01   .8026007E-01   .7973629E-01   .7924045E-01   .7877256E-01
   .7833222E-01   .7791863E-01   .7753069E-01   .7716704E-01   .7682615E-01
   .7650635E-01   .7620590E-01   .7592300E-01   .7565586E-01   .7540270E-01
   .7516189E-01   .7493199E-01   .7471181E-01   .7450046E-01   .7429738E-01
   .7410222E-01   .7391483E-01   .7373512E-01   .7356307E-01   .7339869E-01
   .7324198E-01   .7309298E-01   .7295179E-01   .7281859E-01   .7269376E-01
   .7257788E-01   .7247184E-01   .7237687E-01   .7229466E-01   .7222742E-01
   .7217800E-01   .7214999E-01   .7214767E-01   .7217588E-01   .7223978E-01
   .7234460E-01   .7249528E-01   .7269601E-01   .7294979E-01   .7325791E-01
   .7361947E-01   .7403122E-01   .7448753E-01   .7498059E-01   .7550079E-01
   .7603714E-01   .7657795E-01   .7711148E-01   .7762676E-01   .7811434E-01
   .7856703E-01   .7898051E-01   .7935364E-01   .7968838E-01   .7998908E-01
   .8026147E-01   .8051165E-01   .8074528E-01   .8096701E-01   .8118004E-01
   .8138577E-01   .8158372E-01   .8177157E-01   .8194555E-01   .8210089E-01
   .8223225E-01   .8233406E-01   .8240080E-01   .8242728E-01   .8240883E-01
   .8234151E-01   .8222207E-01   .8204802E-01   .8181738E-01   .8152859E-01
   .8118030E-01   .8077132E-01   .8030058E-01   .7976713E-01   .7917021E-01
   .7850932E-01   .7778443E-01   .7699622E-01   .7614637E-01   .7523784E-01
   .7427502E-01   .7326383E-01   .7221175E-01   .7112767E-01   .7002156E-01
   .6890399E-01   .6778543E-01   .6667579E-01   .6558388E-01   .6451707E-01
   .6348108E-01   .6247995E-01   .6151618E-01   .6059109E-01   .5970530E-01
   .5885907E-01   .5805251E-01   .5728571E-01   .5655866E-01   .5587118E-01
   .5522268E-01   .5461194E-01   .5403687E-01   .5349440E-01   .5298043E-01
   .5248980E-01   .5201633E-01   .5155286E-01   .5109132E-01   .5062307E-01
   .5013926E-01   .4963148E-01   .4909255E-01   .4851745E-01   .4790420E-01
   .4725446E-01   .4657358E-01   .4586991E-01   .4515369E-01   .4443573E-01
   .4372647E-01   .4303538E-01   .4237051E-01   .4173816E-01   .4114275E-01
   .4058676E-01   .4007094E-01   .3959450E-01   .3915533E-01   .3875016E-01
   .3837468E-01   .3802394E-01   .3769261E-01   .3737536E-01   .3706703E-01
   .3676292E-01   .3645897E-01   .3615191E-01   .3583934E-01   .3551985E-01
   .3519306E-01   .3485971E-01   .3452153E-01   .3418120E-01   .3384214E-01
   .3350829E-01   .3318362E-01   .3287159E-01   .3257442E-01   .3229248E-01
   .3202383E-01   .3176410E-01   .3150678E-01   .3124375E-01   .3096581E-01
   .3066303E-01   .3032525E-01   .2994246E-01   .2950529E-01   .2900555E-01
   .2843664E-01   .2779410E-01   .2707579E-01   .2628217E-01   .2541631E-01
   .2448388E-01   .2349281E-01   .2245308E-01   .2137618E-01   .2027451E-01
   .1916053E-01   .1804586E-01   .1694047E-01   .1585219E-01   .1478642E-01
   .1374609E-01   .1273168E-01   .1174128E-01   .1077095E-01   .9815151E-02
   .8867297E-02   .7920136E-02   .6966143E-02   .5997897E-02   .5008447E-02
   .3991620E-02   .2942210E-02   .1856030E-02   .7297906E-03  -.4391176E-03
  -.1652819E-02  -.2913024E-02  -.4220977E-02  -.5577317E-02  -.6981879E-02
  -.8433496E-02  -.9929820E-02  -.1146723E-01  -.1304085E-01  -.1464475E-01
  -.1627211E-01  -.1791528E-01  -.1956580E-01  -.2121421E-01  -.2285002E-01
  -.2446164E-01  -.2603643E-01  -.2756100E-01  -.2902162E-01  -.3040508E-01
  -.3169965E-01  -.3289609E-01  -.3398844E-01  -.3497440E-01  -.3585528E-01
  -.3663561E-01  -.3732238E-01  -.3792416E-01  -.3845048E-01  -.3891129E-01
  -.3931666E-01  -.3967656E-01  -.4000075E-01  -.4029873E-01  -.4057974E-01
  -.4085270E-01  -.4112623E-01  -.4140857E-01  -.4170748E-01  -.4203005E-01
  -.4238243E-01  -.4276963E-01  -.4319534E-01  -.4366205E-01  -.4417123E-01
  -.4472370E-01  -.4531987E-01  -.4595988E-01  -.4664372E-01  -.4737118E-01
  -.4814183E-01  -.4895497E-01  -.4980954E-01  -.5070418E-01  -.5163728E-01
  -.5260719E-01  -.5361233E-01  -.5465139E-01  -.5572338E-01  -.5682763E-01
  -.5796370E-01  -.5913115E-01  -.6032946E-01  -.6155784E-01  -.6281519E-01
  -.6410012E-01  -.6541098E-01  -.6674604E-01  -.6810357E-01  -.6948188E-01
  -.7087937E-01  -.7229443E-01  -.7372528E-01  -.7516978E-01  -.7662502E-01
  -.7808703E-01  -.7955044E-01  -.8100826E-01  -.8245179E-01  -.8387049E-01
  -.8525206E-01  -.8658266E-01  -.8784740E-01  -.8903114E-01  -.9011917E-01
  -.9109780E-01  -.9195467E-01  -.9267891E-01  -.9326117E-01  -.9369365E-01
  -.9397011E-01  -.9408580E-01  -.9403732E-01  -.9382261E-01  -.9344097E-01
  -.9289336E-01  -.9218254E-01  -.9131338E-01  -.9029307E-01  -.8913136E-01
  -.8784060E-01  -.8643551E-01  -.8493273E-01  -.8335047E-01  -.8170805E-01
  -.8002547E-01  -.7832281E-01  -.7661956E-01  -.7493406E-01  -.7328305E-01
  -.7168145E-01  -.7014229E-01  -.6867667E-01  -.6729357E-01  -.6599951E-01
  -.6479828E-01  -.6369073E-01  -.6267488E-01  -.6174637E-01  -.6089924E-01
  -.6012674E-01  -.5942190E-01  -.5877780E-01  -.5818773E-01  -.5764505E-01
  -.5714308E-01  -.5667494E-01  -.5623344E-01  -.5581116E-01  -.5540057E-01
  -.5499450E-01  -.5458660E-01  -.5417192E-01  -.5374748E-01  -.5331248E-01
  -.5286833E-01  -.5241814E-01  -.5196605E-01  -.5151661E-01  -.5107434E-01
  -.5064349E-01  -.5022800E-01  -.4983151E-01  -.4945743E-01  -.4910899E-01
  -.4878905E-01  -.4849989E-01  -.4824286E-01  -.4801787E-01  -.4782296E-01
  -.4765378E-01  -.4750328E-01  -.4736168E-01  -.4721692E-01  -.4705546E-01
  -.4686315E-01  -.4662591E-01  -.4633000E-01  -.4596211E-01  -.4550938E-01
  -.4495942E-01  -.4430051E-01  -.4352194E-01  -.4261437E-01  -.4157029E-01
  -.4038444E-01  -.3905402E-01  -.3757875E-01  -.3596039E-01  -.3420208E-01
  -.3230773E-01  -.3028174E-01  -.2812899E-01  -.2585517E-01  -.2346715E-01
  -.2097335E-01  -.1838385E-01  -.1571033E-01  -.1296601E-01  -.1016554E-01
  -.7324791E-02  -.4460628E-02  -.1590406E-02   .1268507E-02   .4099273E-02
   .6886128E-02   .9614913E-02   .1227352E-01   .1485223E-01   .1734388E-01
   .1974387E-01   .2204979E-01   .2426090E-01   .2637766E-01   .2840135E-01
   .3033394E-01   .3217776E-01   .3393542E-01   .3560961E-01   .3720291E-01
   .3871760E-01   .4015546E-01   .4151739E-01   .4280328E-01   .4401170E-01
   .4513981E-01   .4618327E-01   .4713623E-01   .4799159E-01   .4874143E-01
   .4937764E-01   .4989239E-01   .5027852E-01   .5052983E-01   .5064107E-01
   .5060795E-01   .5042698E-01   .5009546E-01   .4961146E-01   .4897391E-01
   .4818274E-01   .4723928E-01   .4614671E-01   .4491063E-01   .4353953E-01
   .4204529E-01   .4044359E-01   .3875416E-01   .3700061E-01   .3520955E-01
   .3340918E-01   .3162781E-01   .2989263E-01   .2822882E-01   .2665912E-01
   .2520358E-01   .2387940E-01   .2270078E-01   .2167888E-01   .2082206E-01
   .2013627E-01   .1962552E-01   .1929214E-01   .1913701E-01   .1915971E-01
   .1935872E-01   .1973156E-01   .2027491E-01   .2098457E-01   .2185557E-01
   .2288227E-01   .2405840E-01   .2537705E-01   .2683070E-01   .2841122E-01
   .3010990E-01   .3191737E-01   .3382355E-01   .3581754E-01   .3788762E-01
   .4002133E-01   .4220568E-01   .4442739E-01   .4667305E-01   .4892911E-01
   .5118177E-01   .5341680E-01   .5561942E-01   .5777439E-01   .5986638E-01
   .6188053E-01   .6380328E-01   .6562301E-01   .6733055E-01   .6891931E-01
   .7038517E-01   .7172631E-01   .7294292E-01   .7403682E-01   .7501088E-01
   .7586835E-01   .7661231E-01   .7724532E-01   .7776917E-01   .7818485E-01
   .7849267E-01   .7869249E-01   .7878395E-01   .7876681E-01   .7864127E-01
   .7840833E-01   .7807004E-01   .7762975E-01   .7709200E-01   .7646228E-01
   .7574656E-01   .7495070E-01   .7408011E-01   .7313950E-01   .7213292E-01
   .7106396E-01   .6993602E-01   .6875240E-01   .6751618E-01   .6622981E-01
   .6489477E-01   .6351134E-01   .6207869E-01   .6059522E-01   .5905907E-01
   .5746840E-01   .5582169E-01   .5411770E-01   .5235545E-01   .5053395E-01
   .4865216E-01   .4670894E-01   .4470317E-01   .4263406E-01   .4050130E-01
   .3830528E-01   .3604706E-01   .3372828E-01   .3135091E-01   .2891700E-01
   .2642855E-01   .2388743E-01   .2129538E-01   .1865417E-01   .1596575E-01
   .1323254E-01   .1045764E-01   .7645125E-02   .4800167E-02   .1929125E-02
  -.9605314E-03  -.3860546E-02  -.6762492E-02  -.9658657E-02  -.1254301E-01
  -.1541206E-01  -.1826541E-01  -.2110588E-01  -.2393928E-01  -.2677399E-01
  -.2962034E-01  -.3248956E-01  -.3539252E-01  -.3833828E-01  -.4133310E-01
  -.4438001E-01  -.4747913E-01  -.5062841E-01  -.5382447E-01  -.5706334E-01
  -.6034115E-01  -.6365474E-01  -.6700206E-01  -.7038218E-01  -.7379510E-01
  -.7724094E-01  -.8071895E-01  -.8422640E-01  -.8775755E-01  -.9130325E-01
  -.9485115E-01  -.9838670E-01  -.1018946E+00  -.1053602E+00  -.1087702E+00
  -.1121132E+00  -.1153792E+00  -.1185593E+00  -.1216454E+00  -.1246302E+00
  -.1275072E+00  -.1302710E+00  -.1329179E+00  -.1354459E+00  -.1378556E+00
  -.1401496E+00  -.1423327E+00  -.1444115E+00  -.1463942E+00  -.1482896E+00
  -.1501072E+00  -.1518562E+00  -.1535454E+00  -.1551828E+00  -.1567757E+00
  -.1583296E+00  -.1598492E+00  -.1613375E+00  -.1627963E+00  -.1642266E+00
  -.1656283E+00  -.1670011E+00  -.1683440E+00  -.1696557E+00  -.1709337E+00
  -.1721748E+00  -.1733742E+00  -.1745256E+00  -.1756209E+00  -.1766501E+00
  -.1776017E+00  -.1784626E+00  -.1792191E+00  -.1798572E+00  -.1803634E+00
  -.1807261E+00  -.1809359E+00  -.1809860E+00  -.1808730E+00  -.1805964E+00
  -.1801592E+00  -.1795666E+00  -.1788260E+00  -.1779461E+00  -.1769371E+00
  -.1758107E+00  -.1745801E+00  -.1732600E+00  -.1718668E+00  -.1704183E+00
  -.1689335E+00  -.1674323E+00  -.1659347E+00  -.1644602E+00  -.1630270E+00
  -.1616511E+00  -.1603458E+00  -.1591207E+00  -.1579823E+00  -.1569335E+00
  -.1559742E+00  -.1551016E+00  -.1543112E+00  -.1535975E+00  -.1529540E+00
  -.1523744E+00  -.1518520E+00  -.1513809E+00  -.1509554E+00  -.1505704E+00
  -.1502212E+00  -.1499035E+00  -.1496128E+00  -.1493450E+00  -.1490957E+00
  -.1488604E+00  -.1486346E+00  -.1484135E+00  -.1481921E+00  -.1479645E+00
  -.1477246E+00  -.1474655E+00  -.1471800E+00  -.1468611E+00  -.1465037E+00
  -.1461050E+00  -.1456661E+00  -.1451921E+00  -.1446920E+00  -.1441780E+00
  -.1436648E+00  -.1431691E+00  -.1427083E+00  -.1422997E+00  -.1419592E+00
  -.1417002E+00  -.1415321E+00  -.1414599E+00  -.1414849E+00  -.1416043E+00
  -.1418128E+00  -.1421030E+00  -.1424660E+00  -.1428922E+00  -.1433720E+00
  -.1438962E+00  -.1444562E+00  -.1450440E+00  -.1456518E+00  -.1462720E+00
  -.1468964E+00  -.1475165E+00  -.1481230E+00  -.1487063E+00  -.1492561E+00
  -.1497618E+00  -.1502130E+00  -.1505996E+00  -.1509126E+00  -.1511442E+00
  -.1512882E+00  -.1513401E+00  -.1512966E+00  -.1511555E+00  -.1509156E+00
  -.1505761E+00  -.1501366E+00  -.1495970E+00  -.1489572E+00  -.1482177E+00
  -.1473791E+00  -.1464427E+00  -.1454105E+00  -.1442852E+00  -.1430703E+00
  -.1417701E+00  -.1403897E+00  -.1389352E+00  -.1374131E+00  -.1358309E+00
  -.1341966E+00  -.1325192E+00  -.1308081E+00  -.1290735E+00  -.1273257E+00
  -.1255750E+00  -.1238311E+00  -.1221023E+00  -.1203955E+00  -.1187148E+00
  -.1170621E+00  -.1154360E+00  -.1138323E+00  -.1122442E+00  -.1106630E+00
  -.1090789E+00  -.1074825E+00  -.1058648E+00  -.1042187E+00  -.1025389E+00
  -.1008223E+00  -.9906788E-01  -.9727671E-01  -.9545193E-01  -.9359852E-01
  -.9172305E-01  -.8983324E-01  -.8793728E-01  -.8604317E-01  -.8415794E-01
  -.8228742E-01  -.8043612E-01  -.7860747E-01  -.7680411E-01  -.7502808E-01
  -.7328106E-01  -.7156443E-01  -.6987931E-01  -.6822645E-01  -.6660618E-01
  -.6501821E-01  -.6346141E-01  -.6193362E-01  -.6043154E-01  -.5895076E-01
  -.5748582E-01  -.5603043E-01  -.5457753E-01  -.5311950E-01  -.5164829E-01
  -.5015543E-01  -.4863207E-01  -.4706889E-01  -.4545610E-01  -.4378344E-01
  -.4204029E-01  -.4021586E-01  -.3829953E-01  -.3628121E-01  -.3415175E-01
  -.3190338E-01  -.2952994E-01  -.2702715E-01  -.2439268E-01  -.2162592E-01
  -.1872783E-01  -.1570067E-01  -.1254765E-01  -.9272634E-02  -.5879727E-02
  -.2373187E-02   .1242504E-02   .4962392E-02   .8780791E-02   .1269114E-01
   .1668603E-01   .2075738E-01   .2489653E-01   .2909429E-01   .3334087E-01
   .3762575E-01   .4193765E-01   .4626457E-01   .5059414E-01   .5491414E-01
   .5921326E-01   .6348177E-01   .6771217E-01   .7189950E-01   .7604157E-01
   .8013914E-01   .8419577E-01   .8821739E-01   .9221170E-01   .9618733E-01
   .1001532E+00   .1041174E+00   .1080869E+00   .1120658E+00   .1160552E+00
   .1200524E+00   .1240513E+00   .1280426E+00   .1320149E+00   .1359566E+00
   .1398560E+00   .1437017E+00   .1474824E+00   .1511870E+00   .1548038E+00
   .1583208E+00   .1617260E+00   .1650078E+00   .1681556E+00   .1711602E+00
   .1740147E+00   .1767142E+00   .1792558E+00   .1816389E+00   .1838644E+00
   .1859352E+00   .1878553E+00   .1896299E+00   .1912649E+00   .1927671E+00
   .1941439E+00   .1954036E+00   .1965551E+00   .1976078E+00   .1985714E+00
   .1994557E+00   .2002701E+00   .2010240E+00   .2017261E+00   .2023851E+00
   .2030099E+00   .2036100E+00   .2041959E+00   .2047789E+00   .2053717E+00
   .2059880E+00   .2066420E+00   .2073480E+00   .2081195E+00   .2089682E+00
   .2099033E+00   .2109300E+00   .2120489E+00   .2132558E+00   .2145423E+00
   .2158960E+00   .2173021E+00   .2187434E+00   .2202018E+00   .2216579E+00
   .2230920E+00   .2244843E+00   .2258163E+00   .2270707E+00   .2282329E+00
   .2292910E+00   .2302360E+00   .2310611E+00   .2317615E+00   .2323336E+00
   .2327748E+00   .2330834E+00   .2332587E+00   .2333006E+00   .2332107E+00
   .2329915E+00   .2326475E+00   .2321851E+00   .2316119E+00   .2309371E+00
   .2301704E+00   .2293227E+00   .2284055E+00   .2274306E+00   .2264105E+00
   .2253578E+00   .2242857E+00   .2232070E+00   .2221347E+00   .2210809E+00
   .2200570E+00   .2190727E+00   .2181360E+00   .2172524E+00   .2164257E+00
   .2156577E+00   .2149490E+00   .2142990E+00   .2137063E+00   .2131678E+00
   .2126785E+00   .2122310E+00   .2118151E+00   .2114181E+00   .2110253E+00
   .2106210E+00   .2101892E+00   .2097145E+00   .2091820E+00   .2085775E+00
   .2078877E+00   .2071011E+00   .2062081E+00   .2052018E+00   .2040778E+00
   .2028345E+00   .2014724E+00   .1999943E+00   .1984052E+00   .1967120E+00
   .1949232E+00   .1930488E+00   .1911000E+00   .1890884E+00   .1870260E+00
   .1849237E+00   .1827915E+00   .1806375E+00   .1784678E+00   .1762861E+00
   .1740933E+00   .1718878E+00   .1696653E+00   .1674196E+00   .1651421E+00
   .1628229E+00   .1604505E+00   .1580127E+00   .1554971E+00   .1528911E+00
   .1501831E+00   .1473624E+00   .1444198E+00   .1413471E+00   .1381380E+00
   .1347878E+00   .1312934E+00   .1276538E+00   .1238697E+00   .1199429E+00
   .1158769E+00   .1116763E+00   .1073472E+00   .1028967E+00   .9833307E-01
   .9366560E-01   .8890457E-01   .8406108E-01   .7914686E-01   .7417387E-01
   .6915403E-01   .6409890E-01   .5901947E-01   .5392603E-01   .4882811E-01
   .4373460E-01   .3865393E-01   .3359441E-01   .2856451E-01   .2357282E-01
   .1862782E-01   .1373729E-01   .8907587E-02   .4142859E-02  -.5554410E-03
  -.5188632E-02  -.9760340E-02  -.1427572E-01  -.1874068E-01  -.2316135E-01
  -.2754362E-01  -.3189284E-01  -.3621363E-01  -.4050980E-01  -.4478442E-01
  -.4904001E-01  -.5327904E-01  -.5750443E-01  -.6172022E-01  -.6593218E-01
  -.7014817E-01  -.7437818E-01  -.7863383E-01  -.8292737E-01  -.8727035E-01
  -.9167233E-01  -.9614002E-01  -.1006766E+00  -.1052819E+00  -.1099519E+00
  -.1146801E+00  -.1194576E+00  -.1242737E+00  -.1291170E+00  -.1339759E+00
  -.1388388E+00  -.1436947E+00  -.1485328E+00  -.1533432E+00  -.1581162E+00
  -.1628424E+00  -.1675130E+00  -.1721191E+00  -.1766521E+00  -.1811033E+00
  -.1854644E+00  -.1897268E+00  -.1938824E+00  -.1979231E+00  -.2018413E+00
  -.2056296E+00  -.2092814E+00  -.2127906E+00  -.2161515E+00  -.2193590E+00
  -.2224082E+00  -.2252947E+00  -.2280140E+00  -.2305620E+00  -.2329350E+00
  -.2351307E+00  -.2371477E+00  -.2389870E+00  -.2406518E+00  -.2421475E+00
  -.2434819E+00  -.2446651E+00  -.2457084E+00  -.2466249E+00  -.2474287E+00
  -.2481342E+00  -.2487564E+00  -.2493101E+00  -.2498101E+00  -.2502701E+00
  -.2507034E+00  -.2511223E+00  -.2515385E+00  -.2519632E+00  -.2524071E+00
  -.2528808E+00  -.2533950E+00  -.2539598E+00  -.2545850E+00  -.2552792E+00
  -.2560502E+00  -.2569034E+00  -.2578427E+00  -.2588694E+00  -.2599825E+00
  -.2611789E+00  -.2624527E+00  -.2637957E+00  -.2651983E+00  -.2666494E+00
  -.2681378E+00  -.2696526E+00  -.2711833E+00  -.2727202E+00  -.2742544E+00
  -.2757776E+00  -.2772819E+00  -.2787595E+00  -.2802026E+00  -.2816033E+00
  -.2829532E+00  -.2842431E+00  -.2854630E+00  -.2866018E+00  -.2876474E+00
  -.2885865E+00  -.2894057E+00  -.2900916E+00  -.2906315E+00  -.2910146E+00
  -.2912327E+00  -.2912815E+00  -.2911610E+00  -.2908763E+00  -.2904368E+00
  -.2898559E+00  -.2891489E+00  -.2883326E+00  -.2874245E+00  -.2864419E+00
  -.2854022E+00  -.2843226E+00  -.2832196E+00  -.2821091E+00  -.2810063E+00
  -.2799254E+00  -.2788792E+00  -.2778785E+00  -.2769313E+00  -.2760426E+00
  -.2752136E+00  -.2744426E+00  -.2737253E+00  -.2730562E+00  -.2724292E+00
  -.2718384E+00  -.2712779E+00  -.2707420E+00  -.2702255E+00  -.2697229E+00
  -.2692285E+00  -.2687364E+00  -.2682398E+00  -.2677316E+00  -.2672040E+00
  -.2666489E+00  -.2660583E+00  -.2654247E+00  -.2647414E+00  -.2640029E+00
  -.2632050E+00  -.2623446E+00  -.2614197E+00  -.2604288E+00  -.2593717E+00
  -.2582486E+00  -.2570607E+00  -.2558097E+00  -.2544984E+00  -.2531305E+00
  -.2517105E+00  -.2502435E+00  -.2487355E+00  -.2471930E+00  -.2456226E+00
  -.2440318E+00  -.2424287E+00  -.2408220E+00  -.2392222E+00  -.2376408E+00
  -.2360908E+00  -.2345868E+00  -.2331439E+00  -.2317778E+00  -.2305033E+00
  -.2293343E+00  -.2282827E+00  -.2273575E+00  -.2265647E+00  -.2259070E+00
  -.2253842E+00  -.2249932E+00  -.2247282E+00  -.2245815E+00  -.2245436E+00
  -.2246039E+00  -.2247508E+00  -.2249725E+00  -.2252575E+00  -.2255944E+00
  -.2259723E+00  -.2263801E+00  -.2268066E+00  -.2272408E+00  -.2276724E+00
  -.2280917E+00  -.2284902E+00  -.2288610E+00  -.2291988E+00  -.2295002E+00
  -.2297633E+00  -.2299881E+00  -.2301761E+00  -.2303303E+00  -.2304547E+00
  -.2305545E+00  -.2306359E+00  -.2307058E+00  -.2307721E+00  -.2308436E+00
  -.2309292E+00  -.2310385E+00  -.2311805E+00  -.2313633E+00  -.2315935E+00
  -.2318758E+00  -.2322123E+00  -.2326029E+00  -.2330448E+00  -.2335330E+00
  -.2340605E+00  -.2346187E+00  -.2351979E+00  -.2357878E+00  -.2363778E+00
  -.2369574E+00  -.2375167E+00  -.2380461E+00  -.2385370E+00  -.2389813E+00
  -.2393725E+00  -.2397050E+00  -.2399747E+00  -.2401790E+00  -.2403172E+00
  -.2403903E+00  -.2404010E+00  -.2403539E+00  -.2402545E+00  -.2401096E+00
  -.2399268E+00  -.2397146E+00  -.2394826E+00  -.2392413E+00  -.2390021E+00
  -.2387774E+00  -.2385796E+00  -.2384215E+00  -.2383148E+00  -.2382704E+00
  -.2382976E+00  -.2384039E+00  -.2385947E+00  -.2388732E+00  -.2392408E+00
  -.2396968E+00  -.2402394E+00  -.2408658E+00  -.2415728E+00  -.2423567E+00
  -.2432139E+00  -.2441410E+00  -.2451348E+00  -.2461919E+00  -.2473089E+00
  -.2484815E+00  -.2497043E+00  -.2509701E+00  -.2522698E+00  -.2535923E+00
  -.2549251E+00  -.2562549E+00  -.2575677E+00  -.2588500E+00  -.2600881E+00
  -.2612684E+00  -.2623772E+00  -.2634005E+00  -.2643236E+00  -.2651314E+00
  -.2658088E+00  -.2663411E+00  -.2667153E+00  -.2669201E+00  -.2669472E+00
  -.2667911E+00  -.2664494E+00  -.2659222E+00  -.2652123E+00  -.2643240E+00
  -.2632632E+00  -.2620368E+00  -.2606532E+00  -.2591218E+00  -.2574538E+00
  -.2556615E+00  -.2537586E+00  -.2517598E+00  -.2496797E+00  -.2475335E+00
  -.2453359E+00  -.2431018E+00  -.2408457E+00  -.2385827E+00  -.2363280E+00
  -.2340978E+00  -.2319087E+00  -.2297784E+00  -.2277240E+00  -.2257621E+00
  -.2239067E+00  -.2221691E+00  -.2205572E+00  -.2190764E+00  -.2177297E+00
  -.2165192E+00  -.2154457E+00  -.2145097E+00  -.2137116E+00  -.2130516E+00
  -.2125299E+00  -.2121467E+00  -.2119019E+00  -.2117950E+00  -.2118249E+00
  -.2119896E+00  -.2122864E+00  -.2127122E+00  -.2132634E+00  -.2139363E+00
  -.2147269E+00  -.2156313E+00  -.2166454E+00  -.2177644E+00  -.2189833E+00
  -.2202963E+00  -.2216969E+00  -.2231781E+00  -.2247327E+00  -.2263533E+00
  -.2280328E+00  -.2297643E+00  -.2315414E+00  -.2333581E+00  -.2352087E+00
  -.2370878E+00  -.2389900E+00  -.2409095E+00  -.2428405E+00  -.2447759E+00
  -.2467082E+00  -.2486289E+00  -.2505288E+00  -.2523988E+00  -.2542302E+00
  -.2560158E+00  -.2577502E+00  -.2594304E+00  -.2610563E+00  -.2626306E+00
  -.2641586E+00  -.2656483E+00  -.2671097E+00  -.2685542E+00  -.2699944E+00
  -.2714429E+00  -.2729117E+00  -.2744114E+00  -.2759509E+00  -.2775363E+00
  -.2791716E+00  -.2808576E+00  -.2825929E+00  -.2843732E+00  -.2861923E+00
  -.2880424E+00  -.2899150E+00  -.2918011E+00  -.2936919E+00  -.2955792E+00
  -.2974553E+00  -.2993128E+00  -.3011450E+00  -.3029445E+00  -.3047036E+00
  -.3064135E+00  -.3080653E+00  -.3096504E+00  -.3111617E+00  -.3125954E+00
  -.3139512E+00  -.3152337E+00  -.3164513E+00  -.3176153E+00  -.3187386E+00
  -.3198348E+00  -.3209170E+00  -.3219975E+00  -.3230870E+00  -.3241948E+00
  -.3253287E+00  -.3264949E+00  -.3276981E+00  -.3289413E+00  -.3302255E+00
  -.3315493E+00  -.3329096E+00  -.3343015E+00  -.3357189E+00  -.3371548E+00
  -.3386016E+00  -.3400514E+00  -.3414960E+00  -.3429274E+00  -.3443376E+00
  -.3457191E+00  -.3470652E+00  -.3483699E+00  -.3496280E+00  -.3508351E+00
  -.3519872E+00  -.3530803E+00  -.3541102E+00  -.3550720E+00  -.3559608E+00
  -.3567711E+00  -.3574981E+00  -.3581370E+00  -.3586841E+00  -.3591361E+00
  -.3594901E+00  -.3597435E+00  -.3598938E+00  -.3599382E+00  -.3598739E+00
  -.3596977E+00  -.3594066E+00  -.3589976E+00  -.3584675E+00  -.3578134E+00
  -.3570322E+00  -.3561207E+00  -.3550751E+00  -.3538917E+00  -.3525662E+00
  -.3510948E+00  -.3494744E+00  -.3477032E+00  -.3457815E+00  -.3437119E+00
  -.3414995E+00  -.3391521E+00  -.3366805E+00  -.3340976E+00  -.3314187E+00
  -.3286598E+00  -.3258375E+00  -.3229680E+00  -.3200662E+00  -.3171451E+00
  -.3142150E+00  -.3112834E+00  -.3083548E+00  -.3054308E+00  -.3025106E+00
  -.2995914E+00  -.2966685E+00  -.2937361E+00  -.2907881E+00  -.2878186E+00
  -.2848226E+00  -.2817956E+00  -.2787342E+00  -.2756357E+00  -.2724980E+00
  -.2693196E+00  -.2660988E+00  -.2628335E+00  -.2595213E+00  -.2561588E+00
  -.2527421E+00  -.2492671E+00  -.2457297E+00  -.2421262E+00  -.2384532E+00
  -.2347074E+00  -.2308863E+00  -.2269872E+00  -.2230080E+00  -.2189467E+00
  -.2148015E+00  -.2105711E+00  -.2062544E+00  -.2018513E+00  -.1973620E+00
  -.1927883E+00  -.1881330E+00  -.1834003E+00  -.1785959E+00  -.1737258E+00
  -.1687968E+00  -.1638155E+00  -.1587885E+00  -.1537223E+00  -.1486233E+00
  -.1434978E+00  -.1383523E+00  -.1331934E+00  -.1280281E+00  -.1228636E+00
  -.1177075E+00  -.1125674E+00  -.1074511E+00  -.1023664E+00  -.9732083E-01
  -.9232166E-01  -.8737564E-01  -.8248886E-01  -.7766655E-01  -.7291300E-01
  -.6823150E-01  -.6362429E-01  -.5909253E-01  -.5463600E-01  -.5025296E-01
  -.4594000E-01  -.4169215E-01  -.3750315E-01  -.3336586E-01  -.2927263E-01
  -.2521550E-01  -.2118642E-01  -.1717741E-01  -.1318069E-01  -.9188806E-02
  -.5194710E-02  -.1191864E-02   .2825681E-02   .6863182E-02   .1092503E-01
   .1501455E-01   .1913381E-01   .2328346E-01   .2746267E-01   .3166913E-01
   .3589933E-01   .4014892E-01   .4441321E-01   .4868759E-01   .5296792E-01
   .5725095E-01   .6153460E-01   .6581809E-01   .7010193E-01   .7438764E-01
   .7867742E-01   .8297389E-01   .8727986E-01   .9159816E-01   .9593162E-01
   .1002830E+00   .1046551E+00   .1090506E+00   .1134723E+00   .1179232E+00
   .1224062E+00   .1269243E+00   .1314804E+00   .1360773E+00   .1407176E+00
   .1454038E+00   .1501384E+00   .1549237E+00   .1597627E+00   .1646586E+00
   .1696150E+00   .1746364E+00   .1797273E+00   .1848921E+00   .1901345E+00
   .1954564E+00   .2008574E+00   .2063333E+00   .2118769E+00   .2174772E+00
   .2231210E+00   .2287932E+00   .2344772E+00   .2401553E+00   .2458083E+00
   .2514165E+00   .2569595E+00   .2624174E+00   .2677715E+00   .2730053E+00
   .2781043E+00   .2830565E+00   .2878524E+00   .2924856E+00   .2969523E+00
   .3012518E+00   .3053863E+00   .3093604E+00   .3131803E+00   .3168535E+00
   .3203879E+00   .3237911E+00   .3270708E+00   .3302341E+00   .3332882E+00
   .3362399E+00   .3390963E+00   .3418643E+00   .3445508E+00   .3471625E+00
   .3497060E+00   .3521875E+00   .3546134E+00   .3569890E+00   .3593193E+00
   .3616074E+00   .3638544E+00   .3660589E+00   .3682166E+00   .3703208E+00
   .3723632E+00   .3743349E+00   .3762276E+00   .3780336E+00   .3797457E+00
   .3813573E+00   .3828622E+00   .3842549E+00   .3855309E+00   .3866872E+00
   .3877228E+00   .3886378E+00   .3894344E+00   .3901158E+00   .3906862E+00
   .3911509E+00   .3915156E+00   .3917869E+00   .3919722E+00   .3920795E+00
   .3921182E+00   .3920988E+00   .3920326E+00   .3919321E+00   .3918105E+00
   .3916817E+00   .3915595E+00   .3914571E+00   .3913864E+00   .3913574E+00
   .3913774E+00   .3914506E+00   .3915779E+00   .3917575E+00   .3919850E+00
   .3922540E+00   .3925561E+00   .3928813E+00   .3932178E+00   .3935521E+00
   .3938689E+00   .3941515E+00   .3943828E+00   .3945457E+00   .3946247E+00
   .3946054E+00   .3944754E+00   .3942237E+00   .3938413E+00   .3933208E+00
   .3926568E+00   .3918455E+00   .3908854E+00   .3897769E+00   .3885228E+00
   .3871283E+00   .3856009E+00   .3839505E+00   .3821896E+00   .3803325E+00
   .3783950E+00   .3763936E+00   .3743447E+00   .3722641E+00   .3701661E+00
   .3680636E+00   .3659677E+00   .3638881E+00   .3618333E+00   .3598112E+00
   .3578291E+00   .3558947E+00   .3540154E+00   .3521991E+00   .3504532E+00
   .3487845E+00   .3471987E+00   .3456999E+00   .3442910E+00   .3429729E+00
   .3417447E+00   .3406037E+00   .3395454E+00   .3385638E+00   .3376513E+00
   .3367989E+00   .3359963E+00   .3352322E+00   .3344941E+00   .3337689E+00
   .3330431E+00   .3323026E+00   .3315333E+00   .3307207E+00   .3298500E+00
   .3289071E+00   .3278788E+00   .3267541E+00   .3255245E+00   .3241845E+00
   .3227313E+00   .3211646E+00   .3194864E+00   .3177014E+00   .3158167E+00
   .3138426E+00   .3117927E+00   .3096836E+00   .3075346E+00   .3053660E+00
   .3031981E+00   .3010489E+00   .2989340E+00   .2968664E+00   .2948573E+00
   .2929160E+00   .2910504E+00   .2892678E+00   .2875750E+00   .2859790E+00
   .2844870E+00   .2831064E+00   .2818451E+00   .2807107E+00   .2797104E+00
   .2788501E+00   .2781336E+00   .2775627E+00   .2771362E+00   .2768499E+00
   .2766964E+00   .2766657E+00   .2767457E+00   .2769227E+00   .2771815E+00
   .2775065E+00   .2778814E+00   .2782899E+00   .2787170E+00   .2791489E+00
   .2795741E+00   .2799830E+00   .2803681E+00   .2807229E+00   .2810419E+00
   .2813199E+00   .2815528E+00   .2817371E+00   .2818709E+00   .2819533E+00
   .2819852E+00   .2819682E+00   .2819048E+00   .2817979E+00   .2816504E+00
   .2814651E+00   .2812444E+00   .2809905E+00   .2807047E+00   .2803875E+00
   .2800387E+00   .2796570E+00   .2792403E+00   .2787858E+00   .2782899E+00
   .2777488E+00   .2771582E+00   .2765135E+00   .2758102E+00   .2750436E+00
   .2742094E+00   .2733030E+00   .2723202E+00   .2712570E+00   .2701094E+00
   .2688743E+00   .2675487E+00   .2661305E+00   .2646184E+00   .2630120E+00
   .2613120E+00   .2595201E+00   .2576393E+00   .2556736E+00   .2536279E+00
   .2515076E+00   .2493179E+00   .2470634E+00   .2447481E+00   .2423749E+00
   .2399456E+00   .2374612E+00   .2349223E+00   .2323292E+00   .2296825E+00
   .2269826E+00   .2242306E+00   .2214275E+00   .2185743E+00   .2156722E+00
   .2127216E+00   .2097231E+00   .2066764E+00   .2035812E+00   .2004370E+00
   .1972436E+00   .1940008E+00   .1907086E+00   .1873672E+00   .1839762E+00
   .1805351E+00   .1770431E+00   .1734995E+00   .1699042E+00   .1662584E+00
   .1625645E+00   .1588265E+00   .1550498E+00   .1512403E+00   .1474049E+00
   .1435507E+00   .1396846E+00   .1358137E+00   .1319444E+00   .1280827E+00
   .1242340E+00   .1204032E+00   .1165947E+00   .1128130E+00   .1090625E+00
   .1053471E+00   .1016710E+00   .9803775E-01   .9445102E-01   .9091456E-01
   .8743262E-01   .8401028E-01   .8065346E-01   .7736847E-01   .7416104E-01
   .7103491E-01   .6799067E-01   .6502532E-01   .6213302E-01   .5930611E-01
   .5653611E-01   .5381431E-01   .5113202E-01   .4848042E-01   .4585007E-01
   .4323041E-01   .4060957E-01   .3797471E-01   .3531307E-01   .3261326E-01
   .2986654E-01   .2706763E-01   .2421502E-01   .2131103E-01   .1836136E-01
   .1537423E-01   .1235911E-01   .9325342E-02   .6280705E-02   .3230028E-02
   .1743669E-03  -.2888934E-02  -.5965149E-02  -.9060512E-02  -.1218076E-01
  -.1533036E-01  -.1851232E-01  -.2172835E-01  -.2497910E-01  -.2826438E-01
  -.3158339E-01  -.3493491E-01  -.3831750E-01  -.4172962E-01  -.4516972E-01
  -.4863634E-01  -.5212811E-01  -.5564374E-01  -.5918205E-01  -.6274192E-01
  -.6632230E-01  -.6992222E-01  -.7354068E-01  -.7717666E-01  -.8082906E-01
  -.8449653E-01  -.8817742E-01  -.9186965E-01  -.9557065E-01  -.9927737E-01
  -.1029864E+00  -.1066944E+00  -.1103981E+00  -.1140953E+00  -.1177848E+00
  -.1214666E+00  -.1251422E+00  -.1288137E+00  -.1324839E+00  -.1361556E+00
  -.1398308E+00  -.1435110E+00  -.1471968E+00  -.1508886E+00  -.1545866E+00
  -.1582914E+00  -.1620042E+00  -.1657270E+00  -.1694633E+00  -.1732176E+00
  -.1769956E+00  -.1808038E+00  -.1846487E+00  -.1885363E+00  -.1924708E+00
  -.1964545E+00  -.2004870E+00  -.2045657E+00  -.2086850E+00  -.2128376E+00
  -.2170138E+00  -.2212023E+00  -.2253907E+00  -.2295654E+00  -.2337129E+00
  -.2378202E+00  -.2418766E+00  -.2458734E+00  -.2498052E+00  -.2536684E+00
  -.2574608E+00  -.2611805E+00  -.2648257E+00  -.2683937E+00  -.2718816E+00
  -.2752857E+00  -.2786025E+00  -.2818285E+00  -.2849614E+00  -.2879998E+00
  -.2909432E+00  -.2937918E+00  -.2965458E+00  -.2992051E+00  -.3017692E+00
  -.3042371E+00  -.3066074E+00  -.3088786E+00  -.3110490E+00  -.3131170E+00
  -.3150810E+00  -.3169398E+00  -.3186924E+00  -.3203378E+00  -.3218757E+00
  -.3233056E+00  -.3246275E+00  -.3258413E+00  -.3269470E+00  -.3279446E+00
  -.3288341E+00  -.3296154E+00  -.3302887E+00  -.3308539E+00  -.3313114E+00
  -.3316613E+00  -.3319041E+00  -.3320402E+00  -.3320700E+00  -.3319941E+00
  -.3318126E+00  -.3315255E+00  -.3311329E+00  -.3306343E+00  -.3300293E+00
  -.3293175E+00  -.3284992E+00  -.3275749E+00  -.3265465E+00  -.3254170E+00
  -.3241908E+00  -.3228738E+00  -.3214728E+00  -.3199958E+00  -.3184503E+00
  -.3168438E+00  -.3151827E+00  -.3134722E+00  -.3117166E+00  -.3099193E+00
  -.3080828E+00  -.3062094E+00  -.3043006E+00  -.3023584E+00  -.3003846E+00
  -.2983818E+00  -.2963533E+00  -.2943024E+00  -.2922332E+00  -.2901490E+00
  -.2880527E+00  -.2859467E+00  -.2838322E+00  -.2817099E+00  -.2795800E+00
  -.2774419E+00  -.2752950E+00  -.2731381E+00  -.2709703E+00  -.2687908E+00
  -.2665992E+00  -.2643957E+00  -.2621808E+00  -.2599553E+00  -.2577199E+00
  -.2554748E+00  -.2532200E+00  -.2509549E+00  -.2486790E+00  -.2463918E+00
  -.2440929E+00  -.2417825E+00  -.2394609E+00  -.2371288E+00  -.2347872E+00
  -.2324370E+00  -.2300787E+00  -.2277127E+00  -.2253389E+00  -.2229569E+00
  -.2205665E+00  -.2181672E+00  -.2157585E+00  -.2133396E+00  -.2109092E+00
  -.2084651E+00  -.2060044E+00  -.2035232E+00  -.2010171E+00  -.1984812E+00
  -.1959109E+00  -.1933013E+00  -.1906482E+00  -.1879472E+00  -.1851938E+00
  -.1823836E+00  -.1795115E+00  -.1765723E+00  -.1735608E+00  -.1704712E+00
  -.1672985E+00  -.1640378E+00  -.1606845E+00  -.1572352E+00  -.1536868E+00
  -.1500368E+00  -.1462831E+00  -.1424243E+00  -.1384588E+00  -.1343853E+00
  -.1302021E+00  -.1259078E+00  -.1215009E+00  -.1169800E+00  -.1123447E+00
  -.1075960E+00  -.1027363E+00  -.9776989E-01  -.9270262E-01  -.8754127E-01
  -.8229324E-01  -.7696616E-01  -.7156769E-01  -.6610543E-01  -.6058692E-01
  -.5501991E-01  -.4941273E-01  -.4377473E-01  -.3811681E-01  -.3245178E-01
  -.2679454E-01  -.2116197E-01  -.1557257E-01  -.1004588E-01  -.4601573E-02
   .7416416E-03   .5967127E-02   .1106128E-01   .1601396E-01   .2081820E-01
   .2546914E-01   .2996293E-01   .3429582E-01   .3846390E-01   .4246337E-01
   .4629129E-01   .4994683E-01   .5343250E-01   .5675470E-01   .5992328E-01
   .6295052E-01   .6585035E-01   .6863778E-01   .7132862E-01   .7393932E-01
   .7648694E-01   .7898905E-01   .8146349E-01   .8392789E-01   .8639886E-01
   .8889109E-01   .9141633E-01   .9398278E-01   .9659480E-01   .9925332E-01
   .1019566E+00   .1047011E+00   .1074818E+00   .1102934E+00   .1131307E+00
   .1159886E+00   .1188632E+00   .1217512E+00   .1246500E+00   .1275577E+00
   .1304729E+00   .1333943E+00   .1363204E+00   .1392490E+00   .1421769E+00
   .1450992E+00   .1480093E+00   .1508995E+00   .1537613E+00   .1565865E+00
   .1593684E+00   .1621020E+00   .1647843E+00   .1674141E+00   .1699916E+00
   .1725185E+00   .1749978E+00   .1774342E+00   .1798336E+00   .1822026E+00
   .1845489E+00   .1868798E+00   .1892026E+00   .1915236E+00   .1938481E+00
   .1961804E+00   .1985234E+00   .2008790E+00   .2032481E+00   .2056308E+00
   .2080268E+00   .2104353E+00   .2128553E+00   .2152855E+00   .2177243E+00
   .2201707E+00   .2226243E+00   .2250860E+00   .2275582E+00   .2300457E+00
   .2325550E+00   .2350943E+00   .2376722E+00   .2402966E+00   .2429730E+00
   .2457044E+00   .2484903E+00   .2513276E+00   .2542106E+00   .2571314E+00
   .2600804E+00   .2630475E+00   .2660222E+00   .2689947E+00   .2719559E+00
   .2748979E+00   .2778142E+00   .2806993E+00   .2835483E+00   .2863571E+00
   .2891223E+00   .2918406E+00   .2945095E+00   .2971273E+00   .2996930E+00
   .3022063E+00   .3046682E+00   .3070799E+00   .3094437E+00   .3117619E+00
   .3140375E+00   .3162740E+00   .3184756E+00   .3206476E+00   .3227963E+00
   .3249289E+00   .3270534E+00   .3291778E+00   .3313101E+00   .3334573E+00
   .3356256E+00   .3378199E+00   .3400441E+00   .3423012E+00   .3445941E+00
   .3469255E+00   .3492976E+00   .3517121E+00   .3541697E+00   .3566699E+00
   .3592114E+00   .3617919E+00   .3644092E+00   .3670611E+00   .3697460E+00
   .3724627E+00   .3752106E+00   .3779892E+00   .3807981E+00   .3836363E+00
   .3865024E+00   .3893938E+00   .3923072E+00   .3952387E+00   .3981838E+00
   .4011387E+00   .4040996E+00   .4070638E+00   .4100291E+00   .4129939E+00
   .4159573E+00   .4189186E+00   .4218775E+00   .4248335E+00   .4277862E+00
   .4307345E+00   .4336768E+00   .4366108E+00   .4395340E+00   .4424435E+00
   .4453364E+00   .4482103E+00   .4510635E+00   .4538950E+00   .4567046E+00
   .4594928E+00   .4622603E+00   .4650080E+00   .4677360E+00   .4704438E+00
   .4731306E+00   .4757949E+00   .4784350E+00   .4810490E+00   .4836354E+00
   .4861926E+00   .4887197E+00   .4912158E+00   .4936809E+00   .4961153E+00
   .4985198E+00   .5008957E+00   .5032448E+00   .5055691E+00   .5078703E+00
   .5101502E+00   .5124102E+00   .5146518E+00   .5168766E+00   .5190866E+00
   .5212852E+00   .5234767E+00   .5256668E+00   .5278621E+00   .5300685E+00
   .5322908E+00   .5345309E+00   .5367877E+00   .5390569E+00   .5413318E+00
   .5436040E+00   .5458639E+00   .5481022E+00   .5503099E+00   .5524795E+00
   .5546048E+00   .5566817E+00   .5587072E+00   .5606800E+00   .5625993E+00
   .5644649E+00   .5662764E+00   .5680327E+00   .5697325E+00   .5713731E+00
   .5729511E+00   .5744621E+00   .5759010E+00   .5772622E+00   .5785405E+00
   .5797312E+00   .5808306E+00   .5818360E+00   .5827459E+00   .5835593E+00
   .5842756E+00   .5848948E+00   .5854169E+00   .5858422E+00   .5861718E+00
   .5864070E+00   .5865498E+00   .5866027E+00   .5865686E+00   .5864502E+00
   .5862500E+00   .5859702E+00   .5856121E+00   .5851768E+00   .5846645E+00
   .5840756E+00   .5834098E+00   .5826671E+00   .5818472E+00   .5809500E+00
   .5799757E+00   .5789243E+00   .5777965E+00   .5765929E+00   .5753146E+00
   .5739631E+00   .5725400E+00   .5710473E+00   .5694874E+00   .5678631E+00
   .5661776E+00   .5644349E+00   .5626392E+00   .5607952E+00   .5589080E+00
   .5569829E+00   .5550250E+00   .5530394E+00   .5510307E+00   .5490034E+00
   .5469616E+00   .5449099E+00   .5428532E+00   .5407975E+00   .5387499E+00
   .5367183E+00   .5347111E+00   .5327364E+00   .5308015E+00   .5289119E+00
   .5270714E+00   .5252815E+00   .5235420E+00   .5218510E+00   .5202051E+00
   .5185995E+00   .5170280E+00   .5154834E+00   .5139578E+00   .5124430E+00
   .5109308E+00   .5094135E+00   .5078840E+00   .5063361E+00   .5047642E+00
   .5031634E+00   .5015291E+00   .4998572E+00   .4981436E+00   .4963843E+00
   .4945759E+00   .4927151E+00   .4907996E+00   .4888278E+00   .4867992E+00
   .4847146E+00   .4825754E+00   .4803843E+00   .4781440E+00   .4758579E+00
   .4735293E+00   .4711614E+00   .4687576E+00   .4663212E+00   .4638555E+00
   .4613645E+00   .4588528E+00   .4563259E+00   .4537903E+00   .4512533E+00
   .4487226E+00   .4462057E+00   .4437092E+00   .4412375E+00   .4387933E+00
   .4363765E+00   .4339853E+00   .4316164E+00   .4292666E+00   .4269327E+00
   .4246123E+00   .4223032E+00   .4200035E+00   .4177117E+00   .4154265E+00
   .4131471E+00   .4108733E+00   .4086057E+00   .4063458E+00   .4040958E+00
   .4018585E+00   .3996371E+00   .3974343E+00   .3952532E+00   .3930962E+00
   .3909657E+00   .3888643E+00   .3867945E+00   .3847594E+00   .3827627E+00
   .3808088E+00   .3789026E+00   .3770496E+00   .3752555E+00   .3735257E+00
   .3718646E+00   .3702749E+00   .3687573E+00   .3673099E+00   .3659288E+00
   .3646081E+00   .3633417E+00   .3621227E+00   .3609449E+00   .3598021E+00
   .3586886E+00   .3575996E+00   .3565308E+00   .3554786E+00   .3544405E+00
   .3534144E+00   .3523992E+00   .3513944E+00   .3504002E+00   .3494180E+00
   .3484502E+00   .3475002E+00   .3465725E+00   .3456724E+00   .3448046E+00
   .3439735E+00   .3431821E+00   .3424320E+00   .3417225E+00   .3410516E+00
   .3404157E+00   .3398103E+00   .3392307E+00   .3386722E+00   .3381313E+00
   .3376053E+00   .3370931E+00   .3365949E+00   .3361122E+00   .3356469E+00
   .3352014E+00   .3347776E+00   .3343764E+00   .3339973E+00   .3336380E+00
   .3332935E+00   .3329572E+00   .3326206E+00   .3322747E+00   .3319109E+00
   .3315216E+00   .3311008E+00   .3306443E+00   .3301500E+00   .3296167E+00
   .3290443E+00   .3284329E+00   .3277829E+00   .3270944E+00   .3263674E+00
   .3256020E+00   .3247982E+00   .3239566E+00   .3230780E+00   .3221642E+00
   .3212173E+00   .3202400E+00   .3192352E+00   .3182056E+00   .3171539E+00
   .3160822E+00   .3149926E+00   .3138871E+00   .3127683E+00   .3116391E+00
   .3105038E+00   .3093676E+00   .3082369E+00   .3071184E+00   .3060196E+00
   .3049477E+00   .3039097E+00   .3029121E+00   .3019605E+00   .3010598E+00
   .3002136E+00   .2994240E+00   .2986913E+00   .2980138E+00   .2973882E+00
   .2968096E+00   .2962716E+00   .2957668E+00   .2952866E+00   .2948216E+00
   .2943620E+00   .2938980E+00   .2934202E+00   .2929200E+00   .2923897E+00
   .2918228E+00   .2912135E+00   .2905578E+00   .2898532E+00   .2890985E+00
   .2882943E+00   .2874422E+00   .2865441E+00   .2856023E+00   .2846186E+00
   .2835948E+00   .2825329E+00   .2814347E+00   .2803029E+00   .2791402E+00
   .2779498E+00   .2767352E+00   .2755000E+00   .2742477E+00   .2729821E+00
   .2717067E+00   .2704249E+00   .2691401E+00   .2678554E+00   .2665739E+00
   .2652982E+00   .2640309E+00   .2627740E+00   .2615290E+00   .2602963E+00
   .2590755E+00   .2578646E+00   .2566599E+00   .2554562E+00   .2542466E+00
   .2530226E+00   .2517747E+00   .2504919E+00   .2491625E+00   .2477743E+00
   .2463149E+00   .2447718E+00   .2431332E+00   .2413879E+00   .2395259E+00
   .2375386E+00   .2354196E+00   .2331644E+00   .2307708E+00   .2282387E+00
   .2255707E+00   .2227711E+00   .2198462E+00   .2168038E+00   .2136522E+00
   .2104003E+00   .2070570E+00   .2036310E+00   .2001302E+00   .1965622E+00
   .1929341E+00   .1892533E+00   .1855287E+00   .1817702E+00   .1779895E+00
   .1741992E+00   .1704125E+00   .1666425E+00   .1629018E+00   .1592017E+00
   .1555527E+00   .1519631E+00   .1484397E+00   .1449873E+00   .1416087E+00
   .1383052E+00   .1350769E+00   .1319230E+00   .1288429E+00   .1258361E+00
   .1229022E+00   .1200414E+00   .1172537E+00   .1145388E+00   .1118962E+00
   .1093242E+00   .1068205E+00   .1043816E+00   .1020036E+00   .9968173E-01
   .9741109E-01   .9518691E-01   .9300481E-01   .9086113E-01   .8875319E-01
   .8667942E-01   .8463937E-01   .8263358E-01   .8066333E-01   .7873050E-01
   .7683752E-01   .7498731E-01   .7318326E-01   .7142917E-01   .6972926E-01
   .6808831E-01   .6651180E-01   .6500599E-01   .6357788E-01   .6223485E-01
   .6098414E-01   .5983228E-01   .5878458E-01   .5784487E-01   .5701546E-01
   .5629740E-01   .5569057E-01   .5519383E-01   .5480510E-01   .5452143E-01
   .5433906E-01   .5425357E-01   .5426013E-01   .5435386E-01   .5453034E-01
   .5478600E-01   .5511846E-01   .5552655E-01   .5601012E-01   .5656945E-01
   .5720455E-01   .5791449E-01   .5869688E-01   .5954765E-01   .6046115E-01
   .6143078E-01   .6244987E-01   .6351241E-01   .6461316E-01   .6574741E-01
   .6691074E-01   .6809870E-01   .6930662E-01   .7052944E-01   .7176176E-01
   .7299803E-01   .7423302E-01   .7546230E-01   .7668264E-01   .7789214E-01
   .7909010E-01   .8027657E-01   .8145194E-01   .8261647E-01   .8377010E-01
   .8491236E-01   .8604254E-01   .8715999E-01   .8826457E-01   .8935703E-01
   .9043917E-01   .9151388E-01   .9258488E-01   .9365640E-01   .9473294E-01
   .9581907E-01   .9691919E-01   .9803754E-01   .9917796E-01   .1003438E+00
   .1015375E+00   .1027603E+00   .1040120E+00   .1052905E+00   .1065917E+00
   .1079101E+00   .1092387E+00   .1105700E+00   .1118960E+00   .1132091E+00
   .1145022E+00   .1157691E+00   .1170047E+00   .1182053E+00   .1193688E+00
   .1204943E+00   .1215824E+00   .1226353E+00   .1236564E+00   .1246502E+00
   .1256218E+00   .1265769E+00   .1275216E+00   .1284623E+00   .1294062E+00
   .1303614E+00   .1313362E+00   .1323391E+00   .1333777E+00   .1344574E+00
   .1355813E+00   .1367491E+00   .1379583E+00   .1392041E+00   .1404809E+00
   .1417823E+00   .1431019E+00   .1444330E+00   .1457691E+00   .1471033E+00
   .1484279E+00   .1497343E+00   .1510121E+00   .1522495E+00   .1534331E+00
   .1545490E+00   .1555834E+00   .1565246E+00   .1573637E+00   .1580961E+00
   .1587213E+00   .1592427E+00   .1596666E+00   .1600016E+00   .1602571E+00
   .1604432E+00   .1605690E+00   .1606431E+00   .1606720E+00   .1606610E+00
   .1606135E+00   .1605324E+00   .1604202E+00   .1602800E+00   .1601158E+00
   .1599334E+00   .1597401E+00   .1595450E+00   .1593579E+00   .1591885E+00
   .1590459E+00   .1589374E+00   .1588674E+00   .1588379E+00   .1588473E+00
   .1588915E+00   .1589640E+00   .1590565E+00   .1591599E+00   .1592652E+00
   .1593639E+00   .1594486E+00   .1595117E+00   .1595458E+00   .1595429E+00
   .1594943E+00   .1593911E+00   .1592244E+00   .1589868E+00   .1586726E+00
   .1582788E+00   .1578038E+00   .1572479E+00   .1566125E+00   .1559000E+00
   .1551139E+00   .1542589E+00   .1533399E+00   .1523627E+00   .1513330E+00
   .1502571E+00   .1491411E+00   .1479914E+00   .1468148E+00   .1456183E+00
   .1444092E+00   .1431953E+00   .1419843E+00   .1407838E+00   .1396009E+00
   .1384418E+00   .1373111E+00   .1362119E+00   .1351459E+00   .1341131E+00
   .1331125E+00   .1321420E+00   .1311990E+00   .1302808E+00   .1293845E+00
   .1285074E+00   .1276475E+00   .1268030E+00   .1259726E+00   .1251556E+00
   .1243515E+00   .1235602E+00   .1227820E+00   .1220177E+00   .1212684E+00
   .1205360E+00   .1198224E+00   .1191301E+00   .1184615E+00   .1178193E+00
   .1172064E+00   .1166256E+00   .1160800E+00   .1155728E+00   .1151073E+00
   .1146868E+00   .1143147E+00   .1139941E+00   .1137276E+00   .1135176E+00
   .1133660E+00   .1132742E+00   .1132433E+00   .1132740E+00   .1133670E+00
   .1135224E+00   .1137397E+00   .1140175E+00   .1143532E+00   .1147431E+00
   .1151817E+00   .1156626E+00   .1161784E+00   .1167211E+00   .1172824E+00
   .1178538E+00   .1184271E+00   .1189942E+00   .1195468E+00   .1200765E+00
   .1205746E+00   .1210319E+00   .1214384E+00   .1217841E+00   .1220585E+00
   .1222516E+00   .1223540E+00   .1223577E+00   .1222559E+00   .1220439E+00
   .1217183E+00   .1212776E+00   .1207218E+00   .1200515E+00   .1192686E+00
   .1183749E+00   .1173732E+00   .1162663E+00   .1150572E+00   .1137488E+00
   .1123438E+00   .1108444E+00   .1092520E+00   .1075669E+00   .1057889E+00
   .1039168E+00   .1019490E+00   .9988403E-01   .9772050E-01   .9545777E-01
   .9309608E-01   .9063679E-01   .8808236E-01   .8543617E-01   .8270214E-01
   .7988436E-01   .7698683E-01   .7401323E-01   .7096682E-01   .6785041E-01
   .6466649E-01   .6141730E-01   .5810497E-01   .5473149E-01   .5129876E-01
   .4780848E-01   .4426212E-01   .4066077E-01   .3700519E-01   .3329576E-01
   .2953263E-01   .2571582E-01   .2184541E-01   .1792165E-01   .1394513E-01
   .9916845E-02   .5838271E-02   .1711279E-02  -.2461957E-02  -.6679116E-02
  -.1093790E-01  -.1523622E-01  -.1957248E-01  -.2394573E-01  -.2835588E-01
  -.3280380E-01  -.3729121E-01  -.4182052E-01  -.4639450E-01  -.5101597E-01
  -.5568765E-01  -.6041187E-01  -.6519056E-01  -.7002515E-01  -.7491663E-01
  -.7986567E-01  -.8487264E-01  -.8993766E-01  -.9506051E-01  -.1002407E+00
  -.1054773E+00  -.1107691E+00  -.1161146E+00  -.1215120E+00  -.1269595E+00
  -.1324551E+00  -.1379969E+00  -.1435834E+00  -.1492136E+00  -.1548872E+00
  -.1606044E+00  -.1663659E+00  -.1721725E+00  -.1780246E+00  -.1839215E+00
  -.1898612E+00  -.1958399E+00  -.2018526E+00  -.2078932E+00  -.2139548E+00
  -.2200308E+00  -.2261146E+00  -.2322001E+00  -.2382819E+00  -.2443551E+00
  -.2504152E+00  -.2564584E+00  -.2624814E+00  -.2684813E+00  -.2744560E+00
  -.2804042E+00  -.2863251E+00  -.2922189E+00  -.2980861E+00  -.3039278E+00
  -.3097454E+00  -.3155408E+00  -.3213160E+00  -.3270733E+00  -.3328151E+00
  -.3385436E+00  -.3442609E+00  -.3499689E+00  -.3556688E+00  -.3613611E+00
  -.3670457E+00  -.3727219E+00  -.3783884E+00  -.3840435E+00  -.3896850E+00
  -.3953107E+00  -.4009178E+00  -.4065031E+00  -.4120630E+00  -.4175931E+00
  -.4230887E+00  -.4285443E+00  -.4339545E+00  -.4393139E+00  -.4446182E+00
  -.4498639E+00  -.4550495E+00  -.4601748E+00  -.4652416E+00  -.4702534E+00
  -.4752147E+00  -.4801312E+00  -.4850088E+00  -.4898532E+00  -.4946691E+00
  -.4994599E+00  -.5042276E+00  -.5089722E+00  -.5136926E+00  -.5183867E+00
  -.5230519E+00  -.5276859E+00  -.5322868E+00  -.5368533E+00  -.5413847E+00
  -.5458809E+00  -.5503419E+00  -.5547681E+00  -.5591596E+00  -.5635168E+00
  -.5678398E+00  -.5721289E+00  -.5763842E+00  -.5806063E+00  -.5847957E+00
  -.5889533E+00  -.5930802E+00  -.5971773E+00  -.6012455E+00  -.6052852E+00
  -.6092959E+00  -.6132759E+00  -.6172222E+00  -.6211306E+00  -.6249955E+00
  -.6288111E+00  -.6325711E+00  -.6362697E+00  -.6399014E+00  -.6434614E+00
  -.6469458E+00  -.6503509E+00  -.6536737E+00  -.6569116E+00  -.6600623E+00
  -.6631238E+00  -.6660942E+00  -.6689722E+00  -.6717568E+00  -.6744473E+00
  -.6770437E+00  -.6795463E+00  -.6819561E+00  -.6842742E+00  -.6865019E+00
  -.6886410E+00  -.6906929E+00  -.6926594E+00  -.6945425E+00  -.6963439E+00
  -.6980656E+00  -.6997092E+00  -.7012764E+00  -.7027690E+00  -.7041883E+00
  -.7055360E+00  -.7068137E+00  -.7080235E+00  -.7091678E+00  -.7102501E+00
  -.7112749E+00  -.7122479E+00  -.7131756E+00  -.7140657E+00  -.7149255E+00
  -.7157624E+00  -.7165826E+00  -.7173909E+00  -.7181905E+00  -.7189828E+00
  -.7197681E+00  -.7205455E+00  -.7213134E+00  -.7220700E+00  -.7228131E+00
  -.7235405E+00  -.7242499E+00  -.7249391E+00  -.7256058E+00  -.7262479E+00
  -.7268633E+00  -.7274499E+00  -.7280059E+00  -.7285296E+00  -.7290196E+00
  -.7294749E+00  -.7298952E+00  -.7302812E+00  -.7306342E+00  -.7309570E+00
  -.7312531E+00  -.7315266E+00  -.7317819E+00  -.7320237E+00  -.7322569E+00
  -.7324862E+00  -.7327161E+00  -.7329512E+00  -.7331961E+00  -.7334548E+00
  -.7337316E+00  -.7340302E+00  -.7343540E+00  -.7347058E+00  -.7350877E+00
  -.7355013E+00  -.7359469E+00  -.7364243E+00  -.7369315E+00  -.7374655E+00
  -.7380218E+00  -.7385948E+00  -.7391781E+00  -.7397653E+00  -.7403500E+00
  -.7409262E+00  -.7414886E+00  -.7420329E+00  -.7425552E+00  -.7430524E+00
  -.7435220E+00  -.7439621E+00  -.7443711E+00  -.7447482E+00  -.7450929E+00
  -.7454054E+00  -.7456860E+00  -.7459353E+00  -.7461543E+00  -.7463440E+00
  -.7465057E+00  -.7466407E+00  -.7467505E+00  -.7468365E+00  -.7469006E+00
  -.7469446E+00  -.7469707E+00  -.7469782E+00  -.7469634E+00  -.7469261E+00
  -.7468697E+00  -.7467980E+00  -.7467155E+00  -.7466269E+00  -.7465378E+00
  -.7464537E+00  -.7463806E+00  -.7463243E+00  -.7462900E+00  -.7462822E+00
  -.7463046E+00  -.7463598E+00  -.7464494E+00  -.7465746E+00  -.7467362E+00
  -.7469350E+00  -.7471721E+00  -.7474487E+00  -.7477664E+00  -.7481268E+00
  -.7485314E+00  -.7489814E+00  -.7494778E+00  -.7500210E+00  -.7506112E+00
  -.7512484E+00  -.7519331E+00  -.7526658E+00  -.7534481E+00  -.7542821E+00
  -.7551711E+00  -.7561185E+00  -.7571277E+00  -.7582012E+00  -.7593403E+00
  -.7605439E+00  -.7618084E+00  -.7631284E+00  -.7644966E+00  -.7659055E+00
  -.7673484E+00  -.7688198E+00  -.7703163E+00  -.7718363E+00  -.7733789E+00
  -.7749442E+00  -.7765318E+00  -.7781409E+00  -.7797694E+00  -.7814139E+00
  -.7830698E+00  -.7847314E+00  -.7863928E+00  -.7880481E+00  -.7896918E+00
  -.7913188E+00  -.7929248E+00  -.7945059E+00  -.7960592E+00  -.7975824E+00
  -.7990740E+00  -.8005333E+00  -.8019599E+00  -.8033537E+00  -.8047150E+00
  -.8060440E+00  -.8073409E+00  -.8086059E+00  -.8098392E+00  -.8110411E+00
  -.8122117E+00  -.8133511E+00  -.8144597E+00  -.8155376E+00  -.8165851E+00
  -.8176023E+00  -.8185895E+00  -.8195470E+00  -.8204750E+00  -.8213737E+00
  -.8222430E+00  -.8230827E+00  -.8238922E+00  -.8246706E+00  -.8254161E+00
  -.8261263E+00  -.8267979E+00  -.8274267E+00  -.8280076E+00  -.8285351E+00
  -.8290032E+00  -.8294056E+00  -.8297360E+00  -.8299878E+00  -.8301546E+00
  -.8302296E+00  -.8302062E+00  -.8300777E+00  -.8298381E+00  -.8294817E+00
  -.8290039E+00  -.8284014E+00  -.8276726E+00  -.8268171E+00  -.8258361E+00
  -.8247317E+00  -.8235065E+00  -.8221639E+00  -.8207074E+00  -.8191413E+00
  -.8174700E+00  -.8156987E+00  -.8138333E+00  -.8118806E+00  -.8098484E+00
  -.8077452E+00  -.8055799E+00  -.8033607E+00  -.8010944E+00  -.7987852E+00
  -.7964349E+00  -.7940436E+00  -.7916109E+00  -.7891365E+00  -.7866208E+00
  -.7840646E+00  -.7814685E+00  -.7788326E+00  -.7761567E+00  -.7734403E+00
  -.7706827E+00  -.7678828E+00  -.7650397E+00  -.7621517E+00  -.7592173E+00
  -.7562343E+00  -.7532006E+00  -.7501140E+00  -.7469722E+00  -.7437734E+00
  -.7405163E+00  -.7372001E+00  -.7338246E+00  -.7303903E+00  -.7268983E+00
  -.7233505E+00  -.7197493E+00  -.7160980E+00  -.7124004E+00  -.7086611E+00
  -.7048848E+00  -.7010770E+00  -.6972434E+00  -.6933906E+00  -.6895260E+00
  -.6856581E+00  -.6817962E+00  -.6779506E+00  -.6741323E+00  -.6703521E+00
  -.6666203E+00  -.6629458E+00  -.6593354E+00  -.6557937E+00  -.6523220E+00
  -.6489190E+00  -.6455808E+00  -.6423014E+00  -.6390736E+00  -.6358891E+00
  -.6327390E+00  -.6296146E+00  -.6265072E+00  -.6234090E+00  -.6203127E+00
  -.6172122E+00  -.6141022E+00  -.6109787E+00  -.6078388E+00  -.6046806E+00
  -.6015029E+00  -.5983048E+00  -.5950853E+00  -.5918429E+00  -.5885751E+00
  -.5852785E+00  -.5819492E+00  -.5785827E+00  -.5751749E+00  -.5717232E+00
  -.5682265E+00  -.5646859E+00  -.5611045E+00  -.5574867E+00  -.5538383E+00
  -.5501655E+00  -.5464745E+00  -.5427706E+00  -.5390580E+00  -.5353399E+00
  -.5316178E+00  -.5278926E+00  -.5241646E+00  -.5204336E+00  -.5166991E+00
  -.5129609E+00  -.5092183E+00  -.5054709E+00  -.5017184E+00  -.4979602E+00
  -.4941959E+00  -.4904248E+00  -.4866461E+00  -.4828587E+00  -.4790616E+00
  -.4752535E+00  -.4714332E+00  -.4675998E+00  -.4637523E+00  -.4598902E+00
  -.4560132E+00  -.4521214E+00  -.4482153E+00  -.4442953E+00  -.4403620E+00
  -.4364159E+00  -.4324575E+00  -.4284869E+00  -.4245037E+00  -.4205076E+00
  -.4164974E+00  -.4124719E+00  -.4084296E+00  -.4043691E+00  -.4002884E+00
  -.3961857E+00  -.3920587E+00  -.3879049E+00  -.3837216E+00  -.3795060E+00
  -.3752550E+00  -.3709662E+00  -.3666370E+00  -.3622661E+00  -.3578526E+00
  -.3533970E+00  -.3489007E+00  -.3443660E+00  -.3397961E+00  -.3351948E+00
  -.3305662E+00  -.3259152E+00  -.3212467E+00  -.3165655E+00  -.3118764E+00
  -.3071838E+00  -.3024917E+00  -.2978035E+00  -.2931222E+00  -.2884503E+00
  -.2837900E+00  -.2791434E+00  -.2745124E+00  -.2698989E+00  -.2653046E+00
  -.2607312E+00  -.2561804E+00  -.2516538E+00  -.2471528E+00  -.2426788E+00
  -.2382330E+00  -.2338161E+00  -.2294288E+00  -.2250713E+00  -.2207439E+00
  -.2164462E+00  -.2121782E+00  -.2079394E+00  -.2037294E+00  -.1995474E+00
  -.1953926E+00  -.1912638E+00  -.1871599E+00  -.1830796E+00  -.1790216E+00
  -.1749846E+00  -.1709678E+00  -.1669705E+00  -.1629924E+00  -.1590336E+00
  -.1550948E+00  -.1511769E+00  -.1472808E+00  -.1434078E+00  -.1395590E+00
  -.1357358E+00  -.1319393E+00  -.1281705E+00  -.1244307E+00  -.1207208E+00
  -.1170418E+00  -.1133947E+00  -.1097805E+00  -.1061999E+00  -.1026538E+00
  -.9914296E-01  -.9566828E-01  -.9223057E-01  -.8883069E-01  -.8546960E-01
  -.8214836E-01  -.7886811E-01  -.7563004E-01  -.7243538E-01  -.6928528E-01
  -.6618083E-01  -.6312293E-01  -.6011231E-01  -.5714945E-01  -.5423460E-01
  -.5136778E-01  -.4854888E-01  -.4577767E-01  -.4305388E-01  -.4037720E-01
  -.3774733E-01  -.3516398E-01  -.3262689E-01  -.3013585E-01  -.2769067E-01
  -.2529119E-01  -.2293730E-01  -.2062887E-01  -.1836579E-01  -.1614790E-01
  -.1397505E-01  -.1184706E-01  -.9763726E-02  -.7724863E-02  -.5730303E-02
  -.3779932E-02  -.1873708E-02  -.1167999E-04   .1806012E-02   .3579150E-02
   .5307465E-02   .6990664E-02   .8628456E-02   .1022057E-01   .1176680E-01
   .1326701E-01   .1472117E-01   .1612941E-01   .1749201E-01   .1880941E-01
   .2008219E-01   .2131106E-01   .2249679E-01   .2364018E-01   .2474204E-01
   .2580318E-01   .2682436E-01   .2780630E-01   .2874963E-01   .2965493E-01
   .3052269E-01   .3135335E-01   .3214730E-01   .3290492E-01   .3362661E-01
   .3431278E-01   .3496391E-01   .3558049E-01   .3616307E-01   .3671224E-01
   .3722862E-01   .3771285E-01   .3816561E-01   .3858764E-01   .3897966E-01
   .3934247E-01   .3967684E-01   .3998354E-01   .4026335E-01   .4051701E-01
   .4074524E-01   .4094870E-01   .4112803E-01   .4128382E-01   .4141660E-01
   .4152689E-01   .4161517E-01   .4168190E-01   .4172753E-01   .4175252E-01
   .4175731E-01   .4174232E-01   .4170797E-01   .4165470E-01   .4158290E-01
   .4149300E-01   .4138542E-01   .4126064E-01   .4111913E-01   .4096143E-01
   .4078811E-01   .4059978E-01   .4039704E-01   .4018051E-01   .3995081E-01
   .3970852E-01   .3945420E-01   .3918838E-01   .3891159E-01   .3862430E-01
   .3832697E-01   .3802002E-01   .3770387E-01   .3737887E-01   .3704535E-01
   .3670360E-01   .3635386E-01   .3599634E-01   .3563124E-01   .3525872E-01
   .3487891E-01   .3449192E-01   .3409783E-01   .3369669E-01   .3328855E-01
   .3287343E-01   .3245141E-01   .3202257E-01   .3158702E-01   .3114493E-01
   .3069647E-01   .3024183E-01   .2978124E-01   .2931492E-01   .2884310E-01
   .2836604E-01   .2788397E-01   .2739716E-01   .2690589E-01   .2641044E-01
   .2591114E-01   .2540831E-01   .2490233E-01   .2439360E-01   .2388251E-01
   .2336950E-01   .2285497E-01   .2233932E-01   .2182292E-01   .2130615E-01
   .2078935E-01   .2027283E-01   .1975690E-01   .1924184E-01   .1872793E-01
   .1821541E-01   .1770454E-01   .1719555E-01   .1668866E-01   .1618410E-01
   .1568207E-01   .1518277E-01   .1468642E-01   .1419320E-01   .1370330E-01
   .1321693E-01   .1273428E-01   .1225553E-01   .1178087E-01   .1131048E-01
   .1084455E-01   .1038326E-01   .9926791E-02   .9475311E-02   .9028996E-02
   .8588018E-02   .8152546E-02   .7722749E-02   .7298793E-02   .6880843E-02
   .6469063E-02   .6063616E-02   .5664661E-02   .5272357E-02   .4886862E-02
   .4508329E-02   .4136912E-02   .3772762E-02   .3416028E-02   .3066857E-02
   .2725394E-02   .2391782E-02   .2066161E-02   .1748670E-02   .1439444E-02
   .1138616E-02   .8463162E-03   .5626734E-03   .2878123E-03   .2185560E-04
  -.2350769E-03  -.4828682E-03  -.7214040E-03  -.9505729E-03  -.1170266E-02
  -.1380379E-02  -.1580807E-02  -.1771452E-02  -.1952217E-02  -.2123008E-02
  -.2283734E-02  -.2434308E-02  -.2574645E-02  -.2704664E-02  -.2824285E-02
  -.2933433E-02  -.3032036E-02  -.3120023E-02  -.3197330E-02  -.3263891E-02
  -.3319648E-02  -.3364542E-02  -.3398521E-02  -.3421532E-02  -.3433529E-02
